Date,Low,Open,Volume,High,Close,Adjusted Close
04-10-1989,2.4375,2.46875,20636000,2.546875,2.5,1.7905142307281494
05-10-1989,2.5,2.515625,6453600,2.625,2.578125,1.84646737575531
06-10-1989,2.546875,2.59375,2755200,2.625,2.546875,1.8240865468978882
09-10-1989,2.5,2.546875,1084000,2.546875,2.546875,1.8240865468978882
10-10-1989,2.5,2.5625,1493600,2.5625,2.53125,1.8128951787948608
11-10-1989,2.46875,2.5,1260000,2.515625,2.515625,1.8017032146453857
12-10-1989,2.515625,2.515625,602400,2.546875,2.53125,1.8128951787948608
13-10-1989,2.46875,2.53125,3970400,2.53125,2.484375,1.7793225049972534
16-10-1989,2.375,2.375,3924800,2.46875,2.46875,1.7681328058242798
17-10-1989,2.4375,2.4375,1843200,2.5,2.5,1.7905142307281494
18-10-1989,2.484375,2.5,1128000,2.5625,2.546875,1.8240865468978882
19-10-1989,2.53125,2.53125,1040000,2.546875,2.546875,1.8240865468978882
20-10-1989,2.515625,2.53125,237600,2.53125,2.53125,1.8128951787948608
23-10-1989,2.546875,2.546875,87200,2.5625,2.546875,1.8240865468978882
24-10-1989,2.53125,2.546875,689600,2.5625,2.5625,1.8352762460708618
25-10-1989,2.515625,2.546875,608000,2.578125,2.546875,1.8240865468978882
26-10-1989,2.546875,2.546875,228800,2.5625,2.546875,1.8240865468978882
27-10-1989,2.5,2.546875,456000,2.546875,2.515625,1.8017032146453857
30-10-1989,2.5,2.515625,250400,2.515625,2.5,1.7905142307281494
31-10-1989,2.5,2.5,424800,2.515625,2.5,1.7905142307281494
01-11-1989,2.515625,2.515625,715200,2.5625,2.5625,1.8352762460708618
02-11-1989,2.59375,2.59375,130400,2.640625,2.640625,1.891229510307312
03-11-1989,2.625,2.625,1118400,2.75,2.734375,1.9583736658096313
06-11-1989,2.578125,2.71875,264800,2.71875,2.578125,1.84646737575531
07-11-1989,2.5,2.546875,727200,2.6875,2.6875,1.9248017072677612
08-11-1989,2.671875,2.6875,236800,2.71875,2.71875,1.9471842050552368
09-11-1989,2.6875,2.71875,60800,2.71875,2.6875,1.9248017072677612
10-11-1989,2.546875,2.6875,210400,2.6875,2.5625,1.8352762460708618
13-11-1989,2.515625,2.5625,92800,2.5625,2.546875,1.8240865468978882
14-11-1989,2.484375,2.578125,428000,2.578125,2.53125,1.8128951787948608
15-11-1989,2.53125,2.546875,176000,2.578125,2.5625,1.8352762460708618
16-11-1989,2.546875,2.546875,301600,2.59375,2.59375,1.8576586246490479
17-11-1989,2.59375,2.59375,249600,2.640625,2.640625,1.891229510307312
20-11-1989,2.609375,2.65625,43200,2.65625,2.609375,1.8688501119613647
21-11-1989,2.59375,2.59375,108800,2.671875,2.671875,1.9136121273040771
22-11-1989,2.6875,2.6875,255200,2.75,2.75,1.969565749168396
24-11-1989,2.78125,2.78125,572000,2.953125,2.921875,2.092663049697876
27-11-1989,2.859375,2.90625,253600,2.9375,2.875,2.059091567993164
28-11-1989,2.828125,2.875,560000,2.875,2.828125,2.0255191326141357
29-11-1989,2.78125,2.8125,60800,2.8125,2.796875,2.003138542175293
30-11-1989,2.8125,2.8125,712800,2.90625,2.890625,2.0702829360961914
01-12-1989,2.890625,2.890625,356800,2.953125,2.90625,2.081472158432007
04-12-1989,2.875,2.9375,172000,2.984375,2.984375,2.1374270915985107
05-12-1989,2.90625,2.953125,93600,2.984375,2.90625,2.081472158432007
06-12-1989,2.90625,2.90625,668800,3.0,2.984375,2.1374270915985107
07-12-1989,2.921875,2.984375,215200,2.984375,2.953125,2.1150448322296143
08-12-1989,2.921875,2.921875,122400,2.953125,2.953125,2.1150448322296143
11-12-1989,2.9375,2.96875,306400,3.03125,3.0,2.14861798286438
12-12-1989,2.984375,3.015625,1119200,3.03125,3.015625,2.159808397293091
13-12-1989,2.984375,3.0,400000,3.15625,3.15625,2.2605249881744385
14-12-1989,3.109375,3.125,391200,3.140625,3.125,2.238142251968384
15-12-1989,3.09375,3.140625,155200,3.140625,3.109375,2.2269511222839355
18-12-1989,3.03125,3.078125,224000,3.125,3.03125,2.170996904373169
19-12-1989,3.03125,3.03125,215200,3.0625,3.0625,2.193380117416382
20-12-1989,3.046875,3.0625,166400,3.109375,3.078125,2.2045705318450928
21-12-1989,3.0625,3.109375,174400,3.125,3.109375,2.2269511222839355
22-12-1989,3.109375,3.125,173600,3.125,3.125,2.238142251968384
26-12-1989,3.078125,3.109375,97600,3.109375,3.078125,2.2045705318450928
27-12-1989,3.03125,3.0625,144000,3.0625,3.03125,2.170996904373169
28-12-1989,3.03125,3.046875,11200,3.046875,3.03125,2.170996904373169
29-12-1989,3.015625,3.03125,219200,3.15625,3.15625,2.2605249881744385
02-01-1990,3.03125,3.125,194400,3.125,3.046875,2.182188034057617
03-01-1990,3.03125,3.0625,361600,3.0625,3.03125,2.170996904373169
04-01-1990,2.953125,3.03125,166400,3.0625,2.953125,2.1150448322296143
05-01-1990,2.859375,2.9375,100800,2.9375,2.90625,2.081472158432007
08-01-1990,2.84375,2.875,880800,2.890625,2.859375,2.047900915145874
09-01-1990,2.8125,2.828125,282400,2.84375,2.8125,2.0143284797668457
10-01-1990,2.6875,2.765625,784000,2.765625,2.703125,1.9403045177459717
11-01-1990,2.703125,2.71875,347200,2.765625,2.75,1.9739514589309692
12-01-1990,2.6875,2.71875,159200,2.734375,2.71875,1.9515212774276733
15-01-1990,2.71875,2.734375,25600,2.734375,2.71875,1.9515212774276733
16-01-1990,2.625,2.6875,172800,2.703125,2.703125,1.9403045177459717
17-01-1990,2.71875,2.71875,216000,2.8125,2.71875,1.9515212774276733
18-01-1990,2.6875,2.6875,157600,2.71875,2.703125,1.9403045177459717
19-01-1990,2.734375,2.734375,8800,2.75,2.75,1.9739514589309692
22-01-1990,2.71875,2.734375,56800,2.75,2.734375,1.9627355337142944
23-01-1990,2.734375,2.765625,101600,2.765625,2.75,1.9739514589309692
24-01-1990,2.6875,2.734375,26400,2.734375,2.6875,1.9290891885757446
25-01-1990,2.671875,2.6875,249600,2.71875,2.71875,1.9515212774276733
26-01-1990,2.671875,2.703125,45600,2.71875,2.671875,1.917874813079834
29-01-1990,2.625,2.6875,444000,2.6875,2.640625,1.8954417705535889
30-01-1990,2.578125,2.625,548000,2.65625,2.65625,1.9066574573516846
31-01-1990,2.6875,2.6875,757600,2.859375,2.859375,2.052461624145508
01-02-1990,2.84375,2.875,149600,2.875,2.859375,2.052461624145508
02-02-1990,2.875,2.875,720000,2.90625,2.875,2.0636770725250244
05-02-1990,2.875,2.90625,163200,2.90625,2.875,2.0636770725250244
06-02-1990,2.84375,2.875,99200,2.90625,2.890625,2.0748941898345947
07-02-1990,2.90625,2.90625,32800,2.9375,2.9375,2.1085400581359863
08-02-1990,2.96875,2.96875,346400,3.125,3.046875,2.1870479583740234
09-02-1990,2.96875,3.078125,179200,3.125,3.0,2.153402328491211
12-02-1990,2.90625,3.0,28000,3.0,2.90625,2.086108684539795
13-02-1990,2.9375,2.9375,26400,2.953125,2.953125,2.119755744934082
14-02-1990,2.9375,2.953125,32800,2.96875,2.9375,2.1085400581359863
15-02-1990,2.953125,2.953125,152000,2.96875,2.953125,2.119755744934082
16-02-1990,2.96875,2.96875,32000,2.96875,2.96875,2.130971908569336
20-02-1990,2.953125,2.984375,23200,2.984375,2.953125,2.119755744934082
21-02-1990,2.90625,2.953125,553600,2.953125,2.90625,2.086108684539795
22-02-1990,2.84375,2.90625,148000,2.90625,2.84375,2.041245937347412
23-02-1990,2.6875,2.78125,575200,2.78125,2.71875,1.9515212774276733
26-02-1990,2.734375,2.734375,477600,2.75,2.75,1.9739514589309692
27-02-1990,2.765625,2.765625,357600,2.84375,2.84375,2.041245937347412
28-02-1990,2.796875,2.8125,145600,2.828125,2.796875,2.0075998306274414
01-03-1990,2.75,2.796875,225600,2.796875,2.75,1.9739514589309692
02-03-1990,2.6875,2.75,931200,2.78125,2.703125,1.9403045177459717
05-03-1990,2.65625,2.671875,146400,2.703125,2.671875,1.917874813079834
06-03-1990,2.625,2.671875,258400,2.734375,2.734375,1.9627355337142944
07-03-1990,2.703125,2.734375,174400,2.75,2.75,1.9739514589309692
08-03-1990,2.734375,2.75,146400,2.796875,2.78125,1.9963834285736084
09-03-1990,2.734375,2.75,194400,2.78125,2.734375,1.9627355337142944
12-03-1990,2.625,2.703125,1072800,2.71875,2.6875,1.9290891885757446
13-03-1990,2.671875,2.671875,662400,2.6875,2.6875,1.9290891885757446
14-03-1990,2.671875,2.671875,298400,2.765625,2.765625,1.9851677417755127
15-03-1990,2.71875,2.78125,192000,2.796875,2.71875,1.9515212774276733
16-03-1990,2.734375,2.75,271200,2.78125,2.78125,1.9963834285736084
19-03-1990,2.75,2.75,476000,2.765625,2.765625,1.9851677417755127
20-03-1990,2.75,2.75,898400,2.90625,2.796875,2.0075998306274414
21-03-1990,2.796875,2.796875,102400,2.8125,2.796875,2.0075998306274414
22-03-1990,2.75,2.75,177600,2.765625,2.765625,1.9851677417755127
23-03-1990,2.796875,2.796875,320000,2.796875,2.796875,2.0075998306274414
26-03-1990,2.75,2.78125,37600,2.78125,2.75,1.9739514589309692
27-03-1990,2.734375,2.734375,24000,2.75,2.75,1.9739514589309692
28-03-1990,2.84375,2.84375,706400,2.9375,2.921875,2.0973241329193115
29-03-1990,2.890625,2.921875,361600,2.9375,2.90625,2.086108684539795
30-03-1990,2.921875,2.921875,161600,2.921875,2.921875,2.0973241329193115
02-04-1990,2.84375,2.921875,184800,2.921875,2.875,2.0636770725250244
03-04-1990,2.875,2.875,358400,3.03125,2.984375,2.1421873569488525
04-04-1990,2.90625,2.984375,364800,2.984375,2.90625,2.086108684539795
05-04-1990,2.90625,2.9375,373600,2.953125,2.90625,2.086108684539795
06-04-1990,2.78125,2.921875,810400,2.921875,2.78125,1.9963834285736084
09-04-1990,2.734375,2.734375,336800,2.765625,2.734375,1.9671555757522583
10-04-1990,2.71875,2.75,426400,2.8125,2.765625,1.9896382093429565
11-04-1990,2.71875,2.78125,234400,2.8125,2.734375,1.9671555757522583
12-04-1990,2.59375,2.71875,456000,2.734375,2.625,1.8884695768356323
16-04-1990,2.640625,2.640625,273600,2.734375,2.703125,1.944675326347351
17-04-1990,2.703125,2.71875,16800,2.71875,2.71875,1.955916404724121
18-04-1990,2.6875,2.6875,333600,2.75,2.71875,1.955916404724121
19-04-1990,2.671875,2.71875,207200,2.71875,2.6875,1.9334338903427124
20-04-1990,2.65625,2.671875,168800,2.6875,2.671875,1.922194004058838
23-04-1990,2.625,2.65625,173600,2.65625,2.625,1.8884695768356323
24-04-1990,2.625,2.625,458400,2.671875,2.625,1.8884695768356323
25-04-1990,2.640625,2.65625,104000,2.671875,2.65625,1.9109522104263306
26-04-1990,2.625,2.625,461600,2.6875,2.6875,1.9334338903427124
27-04-1990,2.6875,2.6875,133600,2.703125,2.703125,1.944675326347351
30-04-1990,2.6875,2.703125,68800,2.71875,2.71875,1.955916404724121
01-05-1990,2.6875,2.71875,732800,2.828125,2.8125,2.0233616828918457
02-05-1990,2.765625,2.78125,575200,2.828125,2.8125,2.0233616828918457
03-05-1990,2.828125,2.84375,105600,2.859375,2.828125,2.0346031188964844
04-05-1990,2.78125,2.84375,279200,2.84375,2.78125,2.0008792877197266
07-05-1990,2.78125,2.78125,32800,2.84375,2.84375,2.0458436012268066
08-05-1990,2.828125,2.84375,48800,2.84375,2.828125,2.0346031188964844
09-05-1990,2.796875,2.84375,1232800,2.859375,2.796875,2.0121212005615234
10-05-1990,2.796875,2.8125,428000,2.84375,2.796875,2.0121212005615234
11-05-1990,2.828125,2.828125,172000,2.875,2.875,2.0683257579803467
14-05-1990,2.75,2.890625,2418400,2.890625,2.75,1.978398084640503
15-05-1990,2.75,2.78125,5804800,2.828125,2.8125,2.0233616828918457
16-05-1990,2.8125,2.8125,367200,2.96875,2.90625,2.0908071994781494
17-05-1990,2.921875,2.921875,196000,2.953125,2.953125,2.1245296001434326
18-05-1990,2.96875,2.96875,181600,3.0,3.0,2.1582531929016113
21-05-1990,2.921875,2.96875,74400,2.96875,2.953125,2.1245296001434326
22-05-1990,2.96875,2.984375,40800,2.984375,2.96875,2.1357715129852295
23-05-1990,2.90625,2.96875,30400,2.96875,2.90625,2.0908071994781494
24-05-1990,2.75,2.921875,483200,2.921875,2.8125,2.0233616828918457
25-05-1990,2.75,2.8125,817600,2.875,2.875,2.0683257579803467
29-05-1990,2.890625,2.890625,60800,2.90625,2.90625,2.0908071994781494
30-05-1990,2.921875,2.9375,129600,2.984375,2.96875,2.1357715129852295
31-05-1990,2.90625,2.9375,143200,2.984375,2.96875,2.1357715129852295
01-06-1990,2.953125,2.96875,47200,2.984375,2.96875,2.1357715129852295
04-06-1990,2.90625,2.9375,68000,2.984375,2.984375,2.1470119953155518
05-06-1990,2.796875,2.984375,1125600,3.0,2.890625,2.0795669555664062
06-06-1990,2.875,2.890625,44000,2.90625,2.875,2.0683257579803467
07-06-1990,2.859375,2.890625,212800,2.890625,2.859375,2.057084560394287
08-06-1990,2.8125,2.875,405600,2.875,2.84375,2.0458436012268066
11-06-1990,2.84375,2.859375,48800,2.890625,2.875,2.0683257579803467
12-06-1990,2.859375,2.90625,196000,3.0,2.984375,2.1470119953155518
13-06-1990,2.96875,2.96875,208000,3.09375,2.96875,2.1357715129852295
14-06-1990,2.9375,2.953125,20800,2.984375,2.984375,2.1470119953155518
15-06-1990,2.921875,2.984375,158400,2.984375,2.96875,2.1357715129852295
18-06-1990,2.96875,2.96875,1600,2.96875,2.96875,2.1357715129852295
19-06-1990,2.875,2.9375,174400,2.9375,2.921875,2.102047920227051
20-06-1990,2.90625,2.953125,127200,2.953125,2.9375,2.1132888793945312
21-06-1990,2.921875,2.921875,6400,2.9375,2.9375,2.1132888793945312
22-06-1990,2.921875,2.9375,356800,2.953125,2.953125,2.1245296001434326
25-06-1990,2.90625,2.921875,24800,2.9375,2.921875,2.102047920227051
26-06-1990,2.859375,2.90625,207200,2.921875,2.921875,2.102047920227051
27-06-1990,2.921875,2.921875,13600,2.9375,2.921875,2.102047920227051
28-06-1990,2.9375,2.9375,157600,2.96875,2.96875,2.1357715129852295
29-06-1990,2.953125,2.984375,327200,2.984375,2.96875,2.1357715129852295
02-07-1990,2.875,2.953125,322400,2.953125,2.90625,2.0908071994781494
03-07-1990,2.875,2.9375,308800,2.9375,2.875,2.0683257579803467
05-07-1990,2.8125,2.84375,596800,2.84375,2.828125,2.0346031188964844
06-07-1990,2.78125,2.78125,82400,2.796875,2.796875,2.0121212005615234
09-07-1990,2.75,2.796875,724800,2.8125,2.78125,2.0008792877197266
10-07-1990,2.765625,2.78125,1073600,2.78125,2.78125,2.0053863525390625
11-07-1990,2.78125,2.78125,776000,2.8125,2.796875,2.0166537761688232
12-07-1990,2.796875,2.796875,1208800,2.90625,2.875,2.072983980178833
13-07-1990,2.90625,2.90625,568000,3.0,2.96875,2.1405818462371826
16-07-1990,2.96875,2.984375,680800,3.0,2.96875,2.1405818462371826
17-07-1990,2.921875,2.96875,102400,2.96875,2.921875,2.1067821979522705
18-07-1990,2.84375,2.921875,348000,2.921875,2.84375,2.0504517555236816
19-07-1990,2.796875,2.8125,465600,2.875,2.875,2.072983980178833
20-07-1990,2.890625,2.890625,51200,2.90625,2.890625,2.0842506885528564
23-07-1990,2.859375,2.875,349600,2.9375,2.9375,2.118049144744873
24-07-1990,2.90625,2.90625,353600,3.015625,2.984375,2.1518473625183105
25-07-1990,3.0,3.015625,52000,3.03125,3.03125,2.1856446266174316
26-07-1990,3.03125,3.0625,80000,3.0625,3.0625,2.2081782817840576
27-07-1990,2.984375,3.03125,75200,3.0625,2.984375,2.1518473625183105
30-07-1990,2.984375,3.0,160800,3.0,3.0,2.163114070892334
31-07-1990,2.953125,2.953125,175200,3.015625,3.0,2.163114070892334
01-08-1990,3.0,3.03125,134400,3.0625,3.015625,2.174379587173462
02-08-1990,3.03125,3.125,1056800,3.171875,3.171875,2.2870421409606934
03-08-1990,3.109375,3.15625,1272000,3.265625,3.203125,2.30957293510437
06-08-1990,3.125,3.25,247200,3.265625,3.125,2.2532429695129395
07-08-1990,3.125,3.125,148800,3.140625,3.140625,2.264509916305542
08-08-1990,3.09375,3.125,170400,3.140625,3.09375,2.230710506439209
09-08-1990,3.0625,3.09375,296000,3.09375,3.09375,2.230710506439209
10-08-1990,3.09375,3.09375,299200,3.109375,3.09375,2.230710506439209
13-08-1990,3.078125,3.109375,56800,3.125,3.078125,2.2194440364837646
14-08-1990,3.0625,3.109375,49600,3.109375,3.0625,2.2081782817840576
15-08-1990,3.0625,3.0625,196000,3.15625,3.125,2.2532429695129395
16-08-1990,3.078125,3.109375,140000,3.125,3.109375,2.241976261138916
17-08-1990,3.125,3.140625,201600,3.1875,3.140625,2.264509916305542
20-08-1990,3.046875,3.15625,239200,3.15625,3.046875,2.1969120502471924
21-08-1990,3.0625,3.0625,452000,3.09375,3.078125,2.2194440364837646
22-08-1990,3.015625,3.0625,333600,3.09375,3.015625,2.174379587173462
23-08-1990,2.9375,3.0,364000,3.0,2.96875,2.1405818462371826
24-08-1990,2.921875,2.921875,326400,3.0,3.0,2.163114070892334
27-08-1990,2.953125,3.0,88000,3.0,2.953125,2.1293153762817383
28-08-1990,2.953125,2.953125,8000,2.984375,2.984375,2.1518473625183105
29-08-1990,2.9375,3.015625,140800,3.015625,2.9375,2.118049144744873
30-08-1990,2.90625,2.953125,65600,2.984375,2.984375,2.1518473625183105
31-08-1990,2.890625,2.953125,256800,2.984375,2.921875,2.1067821979522705
04-09-1990,2.9375,2.9375,20000,2.953125,2.953125,2.1293153762817383
05-09-1990,2.953125,2.953125,223200,3.1875,3.171875,2.2870421409606934
06-09-1990,3.1875,3.203125,317600,3.296875,3.296875,2.377171516418457
07-09-1990,3.296875,3.296875,160800,3.359375,3.359375,2.422236204147339
10-09-1990,3.328125,3.328125,1408800,3.390625,3.359375,2.422236204147339
11-09-1990,3.1875,3.375,963200,3.375,3.3125,2.388437271118164
12-09-1990,3.265625,3.34375,336000,3.34375,3.3125,2.388437271118164
13-09-1990,3.25,3.3125,405600,3.328125,3.25,2.343374013900757
14-09-1990,3.25,3.25,209600,3.390625,3.390625,2.4447691440582275
17-09-1990,3.375,3.390625,1116000,3.46875,3.46875,2.5010986328125
18-09-1990,3.46875,3.46875,776800,3.765625,3.671875,2.64755916595459
19-09-1990,3.65625,3.6875,1624800,3.6875,3.65625,2.636293888092041
20-09-1990,3.53125,3.65625,432000,3.65625,3.53125,2.546164035797119
21-09-1990,3.46875,3.484375,521600,3.5625,3.5625,2.568696975708008
24-09-1990,3.484375,3.5625,112800,3.5625,3.515625,2.5348997116088867
25-09-1990,3.5,3.5,221600,3.515625,3.515625,2.5348997116088867
26-09-1990,3.453125,3.515625,55200,3.515625,3.46875,2.5010986328125
27-09-1990,3.375,3.4375,72800,3.453125,3.375,2.433502674102783
28-09-1990,3.28125,3.375,163200,3.375,3.34375,2.4109694957733154
01-10-1990,3.296875,3.328125,455200,3.390625,3.34375,2.4109694957733154
02-10-1990,3.328125,3.359375,72000,3.359375,3.359375,2.422236204147339
03-10-1990,3.3125,3.34375,26400,3.34375,3.34375,2.4109694957733154
04-10-1990,3.25,3.34375,313600,3.34375,3.25,2.343374013900757
05-10-1990,3.1875,3.234375,550400,3.296875,3.1875,2.2983078956604004
08-10-1990,3.1875,3.203125,411200,3.234375,3.1875,2.2983078956604004
09-10-1990,3.203125,3.203125,298400,3.375,3.34375,2.415706157684326
10-10-1990,3.21875,3.34375,200000,3.34375,3.234375,2.3366880416870117
11-10-1990,3.203125,3.25,34400,3.25,3.21875,2.3253986835479736
12-10-1990,3.171875,3.1875,89600,3.203125,3.203125,2.3141112327575684
15-10-1990,3.15625,3.203125,36800,3.203125,3.15625,2.280247211456299
16-10-1990,3.109375,3.140625,153600,3.15625,3.109375,2.2463815212249756
17-10-1990,3.09375,3.109375,11200,3.125,3.125,2.2576708793640137
18-10-1990,3.109375,3.109375,113600,3.125,3.109375,2.2463815212249756
19-10-1990,3.078125,3.109375,36800,3.109375,3.09375,2.235092878341675
22-10-1990,3.0625,3.109375,68000,3.109375,3.0625,2.2125165462493896
23-10-1990,3.0625,3.0625,17600,3.109375,3.109375,2.2463815212249756
24-10-1990,3.125,3.125,120000,3.15625,3.15625,2.280247211456299
25-10-1990,3.1875,3.1875,112800,3.328125,3.328125,2.4044179916381836
26-10-1990,3.3125,3.3125,22400,3.359375,3.359375,2.426995277404785
29-10-1990,3.359375,3.375,16000,3.375,3.359375,2.426995277404785
30-10-1990,3.28125,3.34375,29600,3.359375,3.296875,2.3818421363830566
31-10-1990,3.3125,3.3125,366400,3.453125,3.375,2.4382824897766113
01-11-1990,3.359375,3.375,163200,3.375,3.375,2.4382824897766113
02-11-1990,3.375,3.375,469600,3.53125,3.5,2.5285894870758057
05-11-1990,3.46875,3.53125,426400,3.546875,3.46875,2.5060133934020996
06-11-1990,3.421875,3.484375,8800,3.484375,3.421875,2.4721477031707764
07-11-1990,3.375,3.421875,148000,3.421875,3.375,2.4382824897766113
08-11-1990,3.34375,3.34375,37600,3.390625,3.390625,2.4495723247528076
09-11-1990,3.375,3.375,397600,3.4375,3.421875,2.4721477031707764
12-11-1990,3.328125,3.390625,76800,3.390625,3.328125,2.4044179916381836
13-11-1990,3.109375,3.15625,208000,3.15625,3.109375,2.2463815212249756
14-11-1990,3.109375,3.125,75200,3.1875,3.1875,2.3028242588043213
15-11-1990,3.125,3.15625,45600,3.171875,3.140625,2.2689568996429443
16-11-1990,3.09375,3.140625,300800,3.15625,3.15625,2.280247211456299
19-11-1990,2.984375,3.15625,456800,3.15625,2.984375,2.1560754776000977
20-11-1990,2.84375,2.96875,329600,2.96875,2.921875,2.1109211444854736
21-11-1990,2.890625,2.90625,32800,2.96875,2.96875,2.144787311553955
23-11-1990,2.96875,2.96875,18400,2.984375,2.96875,2.144787311553955
26-11-1990,2.96875,2.984375,40000,3.0,2.96875,2.144787311553955
27-11-1990,2.9375,2.984375,39200,2.984375,2.953125,2.133498430252075
28-11-1990,2.90625,2.953125,145600,2.953125,2.921875,2.1109211444854736
29-11-1990,2.90625,2.90625,36800,2.90625,2.90625,2.0996322631835938
30-11-1990,2.765625,2.875,236000,2.890625,2.8125,2.0319015979766846
03-12-1990,2.609375,2.796875,366400,2.796875,2.75,1.9867486953735352
04-12-1990,2.671875,2.734375,230400,2.734375,2.71875,1.9641722440719604
05-12-1990,2.71875,2.71875,432000,2.796875,2.78125,2.0093252658843994
06-12-1990,2.734375,2.78125,248800,2.8125,2.75,1.9867486953735352
07-12-1990,2.625,2.71875,257600,2.71875,2.71875,1.9641722440719604
10-12-1990,2.703125,2.734375,179200,2.734375,2.71875,1.9641722440719604
11-12-1990,2.703125,2.703125,981600,2.78125,2.734375,1.9754605293273926
12-12-1990,2.734375,2.75,493600,2.78125,2.78125,2.0093252658843994
13-12-1990,2.71875,2.75,908000,2.75,2.71875,1.9641722440719604
14-12-1990,2.65625,2.71875,207200,2.78125,2.78125,2.0093252658843994
17-12-1990,2.734375,2.796875,89600,2.828125,2.734375,1.9754605293273926
18-12-1990,2.703125,2.765625,153600,2.796875,2.703125,1.952884316444397
19-12-1990,2.640625,2.703125,277600,2.734375,2.640625,1.9077309370040894
20-12-1990,2.546875,2.609375,1007200,2.609375,2.5625,1.8512874841690063
21-12-1990,2.484375,2.484375,980000,2.515625,2.5,1.806136131286621
24-12-1990,2.5,2.5,222400,2.546875,2.546875,1.840000867843628
26-12-1990,2.5625,2.5625,93600,2.75,2.75,1.9867486953735352
27-12-1990,2.71875,2.75,51200,2.75,2.734375,1.9754605293273926
28-12-1990,2.65625,2.71875,49600,2.71875,2.65625,1.9190194606781006
31-12-1990,2.53125,2.65625,364800,2.65625,2.65625,1.9190194606781006
02-01-1991,2.59375,2.625,36000,2.625,2.59375,1.8738666772842407
03-01-1991,2.484375,2.59375,413600,2.59375,2.484375,1.7948471307754517
04-01-1991,2.328125,2.4375,216800,2.4375,2.328125,1.6819636821746826
07-01-1991,2.21875,2.296875,599200,2.3125,2.265625,1.636810064315796
08-01-1991,2.15625,2.25,679200,2.265625,2.15625,1.5577919483184814
09-01-1991,2.140625,2.171875,572000,2.1875,2.140625,1.5509989261627197
10-01-1991,2.09375,2.125,296000,2.140625,2.140625,1.5509989261627197
11-01-1991,2.109375,2.109375,278400,2.21875,2.21875,1.6076050996780396
14-01-1991,2.21875,2.234375,172800,2.265625,2.25,1.6302473545074463
15-01-1991,2.171875,2.25,92800,2.25,2.234375,1.6189258098602295
16-01-1991,2.171875,2.234375,50400,2.25,2.203125,1.5962846279144287
17-01-1991,2.03125,2.1875,1341600,2.25,2.203125,1.5962846279144287
18-01-1991,2.15625,2.203125,275200,2.21875,2.1875,1.5849626064300537
21-01-1991,2.0625,2.15625,550400,2.15625,2.125,1.539678692817688
22-01-1991,2.125,2.15625,174400,2.171875,2.125,1.539678692817688
23-01-1991,2.140625,2.140625,837600,2.265625,2.25,1.6302473545074463
24-01-1991,2.265625,2.3125,495200,2.34375,2.28125,1.6528898477554321
25-01-1991,2.21875,2.3125,817600,2.375,2.25,1.6302473545074463
28-01-1991,2.203125,2.28125,679200,2.296875,2.234375,1.6189258098602295
29-01-1991,2.25,2.25,99200,2.265625,2.25,1.6302473545074463
30-01-1991,2.203125,2.21875,132000,2.25,2.234375,1.6189258098602295
31-01-1991,2.15625,2.21875,384800,2.21875,2.171875,1.573641300201416
01-02-1991,2.15625,2.15625,869600,2.21875,2.21875,1.6076050996780396
04-02-1991,2.203125,2.21875,961600,2.28125,2.25,1.6302473545074463
05-02-1991,2.25,2.25,1217600,2.375,2.28125,1.6528898477554321
06-02-1991,2.28125,2.28125,1186400,2.5,2.484375,1.8000653982162476
07-02-1991,2.546875,2.546875,1224000,2.78125,2.6875,1.9472399950027466
08-02-1991,2.640625,2.65625,94400,2.6875,2.671875,1.9359192848205566
11-02-1991,2.640625,2.6875,307200,2.75,2.703125,1.9585614204406738
12-02-1991,2.59375,2.734375,216000,2.734375,2.59375,1.8793118000030518
13-02-1991,2.625,2.625,45600,2.703125,2.703125,1.9585614204406738
14-02-1991,2.515625,2.6875,148800,2.6875,2.515625,1.8227065801620483
15-02-1991,2.484375,2.484375,356800,2.609375,2.609375,1.8906344175338745
19-02-1991,2.515625,2.59375,160800,2.59375,2.546875,1.8453491926193237
20-02-1991,2.515625,2.546875,219200,2.625,2.625,1.9019559621810913
21-02-1991,2.59375,2.609375,188000,2.625,2.59375,1.8793118000030518
22-02-1991,2.453125,2.59375,408000,2.59375,2.453125,1.7774227857589722
25-02-1991,2.328125,2.453125,88800,2.453125,2.328125,1.6868537664413452
26-02-1991,2.265625,2.3125,776800,2.328125,2.3125,1.6755321025848389
27-02-1991,2.34375,2.34375,1544000,2.453125,2.4375,1.7661008834838867
28-02-1991,2.453125,2.46875,578400,2.59375,2.59375,1.8793118000030518
01-03-1991,2.53125,2.59375,692800,2.59375,2.546875,1.8453491926193237
04-03-1991,2.546875,2.546875,555200,2.609375,2.59375,1.8793118000030518
05-03-1991,2.5625,2.5625,418400,2.578125,2.578125,1.8679924011230469
06-03-1991,2.546875,2.546875,180800,2.59375,2.5625,1.8566715717315674
07-03-1991,2.5625,2.5625,280800,2.625,2.625,1.9019559621810913
08-03-1991,2.59375,2.625,442400,2.78125,2.671875,1.9359192848205566
11-03-1991,2.6875,2.6875,116000,2.75,2.71875,1.969881296157837
12-03-1991,2.6875,2.75,163200,2.75,2.6875,1.9472399950027466
13-03-1991,2.59375,2.671875,147200,2.671875,2.59375,1.8793118000030518
14-03-1991,2.546875,2.578125,184000,2.59375,2.5625,1.8566715717315674
15-03-1991,2.546875,2.546875,289600,2.65625,2.625,1.9019559621810913
18-03-1991,2.625,2.640625,136000,2.6875,2.6875,1.9472399950027466
19-03-1991,2.609375,2.65625,172000,2.65625,2.625,1.9019559621810913
20-03-1991,2.625,2.625,71200,2.65625,2.65625,1.9245978593826294
21-03-1991,2.65625,2.671875,327200,2.734375,2.734375,1.9812039136886597
22-03-1991,2.703125,2.734375,93600,2.734375,2.703125,1.9585614204406738
25-03-1991,2.640625,2.71875,115200,2.71875,2.703125,1.9585614204406738
26-03-1991,2.625,2.671875,447200,2.6875,2.65625,1.9245978593826294
27-03-1991,2.578125,2.640625,86400,2.640625,2.578125,1.8679924011230469
28-03-1991,2.515625,2.578125,70400,2.59375,2.515625,1.8227065801620483
01-04-1991,2.453125,2.53125,128000,2.53125,2.453125,1.7774227857589722
02-04-1991,2.359375,2.46875,367200,2.46875,2.375,1.7208173274993896
03-04-1991,2.3125,2.359375,1358400,2.4375,2.3125,1.6755321025848389
04-04-1991,2.34375,2.34375,1049600,2.40625,2.40625,1.7434593439102173
05-04-1991,2.421875,2.421875,73600,2.484375,2.484375,1.8000653982162476
08-04-1991,2.4375,2.46875,24000,2.46875,2.4375,1.7661008834838867
09-04-1991,2.375,2.40625,198400,2.4375,2.4375,1.7661008834838867
10-04-1991,2.34375,2.421875,198400,2.421875,2.390625,1.7365919351577759
11-04-1991,2.359375,2.40625,255200,2.4375,2.40625,1.7479418516159058
12-04-1991,2.390625,2.40625,398400,2.46875,2.46875,1.7933422327041626
15-04-1991,2.5,2.5,258400,2.5625,2.546875,1.8500930070877075
16-04-1991,2.53125,2.53125,468000,2.640625,2.625,1.9068456888198853
17-04-1991,2.578125,2.640625,662400,2.640625,2.578125,1.8727951049804688
18-04-1991,2.609375,2.609375,68800,2.640625,2.625,1.9068456888198853
19-04-1991,2.5625,2.609375,20000,2.625,2.578125,1.8727951049804688
22-04-1991,2.484375,2.578125,263200,2.578125,2.5,1.8160426616668701
23-04-1991,2.453125,2.484375,69600,2.5,2.5,1.8160426616668701
24-04-1991,2.46875,2.5,44800,2.5,2.5,1.8160426616668701
25-04-1991,2.46875,2.484375,70400,2.484375,2.46875,1.7933422327041626
26-04-1991,2.421875,2.453125,24000,2.453125,2.4375,1.77064049243927
29-04-1991,2.34375,2.421875,373600,2.421875,2.34375,1.7025405168533325
30-04-1991,2.328125,2.375,1024800,2.375,2.375,1.7252410650253296
01-05-1991,2.34375,2.375,403200,2.421875,2.421875,1.759291172027588
02-05-1991,2.375,2.40625,714400,2.40625,2.375,1.7252410650253296
03-05-1991,2.359375,2.40625,464000,2.4375,2.390625,1.7365919351577759
06-05-1991,2.359375,2.375,11200,2.375,2.359375,1.713890790939331
07-05-1991,2.28125,2.375,360800,2.375,2.34375,1.7025405168533325
08-05-1991,2.328125,2.34375,567200,2.453125,2.4375,1.77064049243927
09-05-1991,2.40625,2.453125,150400,2.46875,2.46875,1.7933422327041626
10-05-1991,2.375,2.453125,88800,2.453125,2.375,1.7252410650253296
13-05-1991,2.28125,2.359375,872000,2.359375,2.28125,1.6571385860443115
14-05-1991,2.28125,2.28125,366400,2.375,2.3125,1.6798392534255981
15-05-1991,2.3125,2.3125,276000,2.40625,2.390625,1.7365919351577759
16-05-1991,2.421875,2.453125,404000,2.46875,2.421875,1.759291172027588
17-05-1991,2.390625,2.421875,25600,2.421875,2.40625,1.7479418516159058
20-05-1991,2.390625,2.40625,121600,2.4375,2.40625,1.7479418516159058
21-05-1991,2.34375,2.4375,480800,2.4375,2.375,1.7252410650253296
22-05-1991,2.375,2.375,31200,2.390625,2.390625,1.7365919351577759
23-05-1991,2.375,2.40625,240800,2.421875,2.40625,1.7479418516159058
24-05-1991,2.375,2.421875,160800,2.453125,2.390625,1.7365919351577759
28-05-1991,2.375,2.375,60000,2.453125,2.4375,1.77064049243927
29-05-1991,2.421875,2.4375,334400,2.4375,2.4375,1.77064049243927
30-05-1991,2.421875,2.4375,521600,2.5,2.5,1.8160426616668701
31-05-1991,2.53125,2.53125,1612000,2.625,2.625,1.9068456888198853
03-06-1991,2.609375,2.65625,256000,2.6875,2.625,1.9068456888198853
04-06-1991,2.625,2.65625,1272800,2.671875,2.625,1.9068456888198853
05-06-1991,2.578125,2.625,141600,2.625,2.578125,1.8727951049804688
06-06-1991,2.5625,2.5625,201600,2.609375,2.59375,1.8841437101364136
07-06-1991,2.53125,2.59375,473600,2.59375,2.53125,1.8387424945831299
10-06-1991,2.53125,2.546875,168000,2.5625,2.53125,1.8387424945831299
11-06-1991,2.4375,2.53125,155200,2.53125,2.5,1.8160426616668701
12-06-1991,2.484375,2.5,51200,2.5,2.5,1.8160426616668701
13-06-1991,2.484375,2.5,1600,2.5,2.484375,1.8046927452087402
14-06-1991,2.46875,2.46875,83200,2.46875,2.46875,1.7933422327041626
17-06-1991,2.453125,2.46875,21600,2.46875,2.453125,1.781991958618164
18-06-1991,2.4375,2.46875,341600,2.46875,2.46875,1.7933422327041626
19-06-1991,2.46875,2.46875,170400,2.5,2.5,1.8160426616668701
20-06-1991,2.375,2.4375,30400,2.4375,2.375,1.7252410650253296
21-06-1991,2.3125,2.34375,251200,2.375,2.34375,1.7025405168533325
24-06-1991,2.3125,2.359375,124800,2.375,2.375,1.7252410650253296
25-06-1991,2.359375,2.375,39200,2.375,2.359375,1.713890790939331
26-06-1991,2.296875,2.328125,188000,2.359375,2.3125,1.6798392534255981
27-06-1991,2.28125,2.3125,260800,2.34375,2.3125,1.6798392534255981
28-06-1991,2.25,2.3125,418400,2.3125,2.25,1.6344385147094727
01-07-1991,2.203125,2.25,188800,2.25,2.203125,1.600388526916504
02-07-1991,2.21875,2.21875,127200,2.25,2.234375,1.6230876445770264
03-07-1991,2.203125,2.203125,267200,2.28125,2.25,1.6344385147094727
05-07-1991,2.25,2.25,3200,2.25,2.25,1.6344385147094727
08-07-1991,2.25,2.25,192800,2.296875,2.296875,1.6684889793395996
09-07-1991,2.234375,2.28125,359200,2.3125,2.265625,1.6502796411514282
10-07-1991,2.234375,2.25,56000,2.25,2.234375,1.6275168657302856
11-07-1991,2.25,2.25,152800,2.328125,2.3125,1.6844229698181152
12-07-1991,2.28125,2.34375,1025600,2.359375,2.296875,1.673041582107544
15-07-1991,2.328125,2.328125,791200,2.375,2.375,1.7299479246139526
16-07-1991,2.34375,2.359375,1204800,2.421875,2.421875,1.7640917301177979
17-07-1991,2.4375,2.453125,1052000,2.59375,2.59375,1.8892838954925537
18-07-1991,2.625,2.625,304800,2.671875,2.671875,1.9461915493011475
19-07-1991,2.609375,2.671875,73600,2.671875,2.625,1.9120488166809082
22-07-1991,2.5625,2.625,72000,2.625,2.59375,1.8892838954925537
23-07-1991,2.578125,2.609375,124000,2.625,2.578125,1.8779053688049316
24-07-1991,2.578125,2.578125,39200,2.59375,2.578125,1.8779053688049316
25-07-1991,2.5625,2.5625,232800,2.578125,2.5625,1.8665233850479126
26-07-1991,2.5625,2.5625,226400,2.59375,2.59375,1.8892838954925537
29-07-1991,2.59375,2.609375,6400,2.609375,2.609375,1.9006657600402832
30-07-1991,2.59375,2.59375,582400,2.65625,2.625,1.9120488166809082
31-07-1991,2.53125,2.5625,698400,2.578125,2.53125,1.8437596559524536
01-08-1991,2.53125,2.53125,248800,2.578125,2.5625,1.8665233850479126
02-08-1991,2.546875,2.546875,71200,2.546875,2.546875,1.855141282081604
05-08-1991,2.546875,2.5625,96800,2.578125,2.5625,1.8665233850479126
06-08-1991,2.5625,2.5625,457600,2.625,2.59375,1.8892838954925537
07-08-1991,2.59375,2.59375,733600,2.625,2.625,1.9120488166809082
08-08-1991,2.625,2.640625,413600,2.6875,2.640625,1.9234288930892944
09-08-1991,2.625,2.625,111200,2.65625,2.65625,1.9348094463348389
12-08-1991,2.640625,2.6875,223200,2.703125,2.65625,1.9348094463348389
13-08-1991,2.640625,2.640625,118400,2.6875,2.6875,1.9575718641281128
14-08-1991,2.671875,2.671875,372000,2.75,2.75,2.0030975341796875
15-08-1991,2.71875,2.75,369600,2.75,2.75,2.0030975341796875
16-08-1991,2.703125,2.734375,490400,2.734375,2.703125,1.968955159187317
19-08-1991,2.609375,2.671875,91200,2.671875,2.609375,1.9006657600402832
20-08-1991,2.609375,2.609375,22400,2.625,2.625,1.9120488166809082
21-08-1991,2.609375,2.625,78400,2.625,2.625,1.9120488166809082
22-08-1991,2.5625,2.640625,292800,2.640625,2.59375,1.8892838954925537
23-08-1991,2.59375,2.59375,1125600,2.75,2.75,2.0030975341796875
26-08-1991,2.734375,2.75,183200,2.78125,2.75,2.0030975341796875
27-08-1991,2.75,2.75,362400,2.84375,2.8125,2.0486233234405518
28-08-1991,2.828125,2.84375,203200,2.953125,2.9375,2.1396725177764893
29-08-1991,2.921875,2.921875,416800,3.0,2.953125,2.1510541439056396
30-08-1991,2.90625,2.96875,236800,2.96875,2.921875,2.128291606903076
03-09-1991,2.78125,2.890625,230400,2.890625,2.78125,2.0258612632751465
04-09-1991,2.75,2.765625,175200,2.8125,2.765625,2.014479637145996
05-09-1991,2.796875,2.796875,309600,2.828125,2.8125,2.0486233234405518
06-09-1991,2.78125,2.8125,55200,2.828125,2.828125,2.060004711151123
09-09-1991,2.8125,2.8125,8000,2.84375,2.84375,2.0713858604431152
10-09-1991,2.8125,2.828125,452800,2.84375,2.84375,2.0713858604431152
11-09-1991,2.8125,2.828125,145600,2.84375,2.84375,2.0713858604431152
12-09-1991,2.84375,2.859375,48000,2.859375,2.84375,2.0713858604431152
13-09-1991,2.828125,2.875,366400,2.875,2.84375,2.0713858604431152
16-09-1991,2.828125,2.859375,433600,2.859375,2.84375,2.0713858604431152
17-09-1991,2.84375,2.84375,648800,2.890625,2.890625,2.105529308319092
18-09-1991,2.90625,2.90625,136800,2.9375,2.9375,2.1396725177764893
19-09-1991,2.921875,2.953125,153600,3.03125,3.03125,2.2079591751098633
20-09-1991,3.0,3.078125,312000,3.078125,3.03125,2.2079591751098633
23-09-1991,2.96875,3.0625,113600,3.0625,2.96875,2.1624343395233154
24-09-1991,2.875,2.96875,77600,2.96875,2.875,2.094147205352783
25-09-1991,2.875,2.890625,7200,2.890625,2.875,2.094147205352783
26-09-1991,2.875,2.90625,296000,2.953125,2.953125,2.1510541439056396
27-09-1991,2.953125,2.96875,70400,3.0,2.96875,2.1624343395233154
30-09-1991,2.953125,2.953125,229600,2.984375,2.984375,2.1738169193267822
01-10-1991,2.859375,2.984375,1317600,3.0,2.859375,2.0827648639678955
02-10-1991,2.84375,2.84375,740800,2.9375,2.90625,2.116910696029663
03-10-1991,2.890625,2.90625,106400,2.90625,2.890625,2.105529308319092
04-10-1991,2.859375,2.875,599200,2.890625,2.890625,2.105529308319092
07-10-1991,2.859375,2.875,973600,2.9375,2.9375,2.1396725177764893
08-10-1991,2.90625,2.9375,735200,2.953125,2.9375,2.1442346572875977
09-10-1991,2.90625,2.9375,43200,2.9375,2.90625,2.121422290802002
10-10-1991,2.875,2.90625,144000,2.921875,2.90625,2.121422290802002
11-10-1991,2.90625,2.921875,23200,2.921875,2.921875,2.132828712463379
14-10-1991,2.9375,2.9375,32000,2.984375,2.96875,2.1670453548431396
15-10-1991,2.984375,2.984375,181600,3.015625,3.015625,2.201263189315796
16-10-1991,3.0,3.046875,104000,3.078125,3.0,2.189857244491577
17-10-1991,2.984375,3.0,89600,3.03125,3.03125,2.21266770362854
18-10-1991,3.0,3.046875,87200,3.046875,3.0,2.189857244491577
21-10-1991,2.984375,2.984375,3200,2.984375,2.984375,2.178450584411621
22-10-1991,2.875,2.953125,495200,2.953125,2.875,2.0986127853393555
23-10-1991,2.890625,2.953125,95200,2.953125,2.890625,2.110018253326416
24-10-1991,2.84375,2.875,35200,2.875,2.84375,2.0758020877838135
25-10-1991,2.75,2.8125,277600,2.8125,2.765625,2.018775701522827
28-10-1991,2.75,2.75,181600,2.84375,2.84375,2.0758020877838135
29-10-1991,2.75,2.859375,404800,2.859375,2.765625,2.018775701522827
30-10-1991,2.78125,2.78125,12800,2.796875,2.796875,2.0415842533111572
31-10-1991,2.796875,2.8125,37600,2.84375,2.84375,2.0758020877838135
01-11-1991,2.84375,2.859375,62400,2.9375,2.9375,2.1442346572875977
04-11-1991,2.921875,2.921875,624800,3.078125,3.03125,2.21266770362854
05-11-1991,3.046875,3.046875,421600,3.140625,3.109375,2.2696962356567383
06-11-1991,3.03125,3.140625,228000,3.140625,3.03125,2.21266770362854
07-11-1991,3.0,3.046875,206400,3.046875,3.03125,2.21266770362854
08-11-1991,3.015625,3.015625,96800,3.0625,3.0625,2.2354776859283447
11-11-1991,3.03125,3.0625,20000,3.0625,3.03125,2.21266770362854
12-11-1991,3.0,3.0,71200,3.046875,3.03125,2.21266770362854
13-11-1991,3.03125,3.03125,127200,3.140625,3.125,2.2811005115509033
14-11-1991,3.015625,3.125,102400,3.125,3.03125,2.21266770362854
15-11-1991,2.890625,3.015625,141600,3.015625,2.9375,2.1442346572875977
18-11-1991,2.875,2.9375,236800,2.9375,2.875,2.0986127853393555
19-11-1991,2.8125,2.890625,143200,2.890625,2.8125,2.0529911518096924
20-11-1991,2.78125,2.796875,144000,2.796875,2.78125,2.0301778316497803
21-11-1991,2.78125,2.78125,202400,2.84375,2.796875,2.0415842533111572
22-11-1991,2.75,2.78125,97600,2.78125,2.75,2.007369041442871
25-11-1991,2.75,2.75,16800,2.765625,2.765625,2.018775701522827
26-11-1991,2.609375,2.75,346400,2.75,2.625,1.9161245822906494
27-11-1991,2.625,2.640625,76800,2.65625,2.625,1.9161245822906494
29-11-1991,2.640625,2.640625,28800,2.65625,2.65625,1.93893563747406
02-12-1991,2.59375,2.65625,299200,2.671875,2.59375,1.8933136463165283
03-12-1991,2.59375,2.59375,97600,2.65625,2.65625,1.93893563747406
04-12-1991,2.625,2.65625,20800,2.65625,2.625,1.9161245822906494
05-12-1991,2.625,2.625,96800,2.6875,2.640625,1.9275306463241577
06-12-1991,2.640625,2.640625,858400,2.65625,2.640625,1.9275306463241577
09-12-1991,2.59375,2.625,57600,2.625,2.59375,1.8933136463165283
10-12-1991,2.484375,2.5625,171200,2.5625,2.5,1.8248811960220337
11-12-1991,2.453125,2.515625,415200,2.5625,2.546875,1.859096884727478
12-12-1991,2.515625,2.515625,124000,2.53125,2.53125,1.8476917743682861
13-12-1991,2.5,2.53125,319200,2.53125,2.5,1.8248811960220337
16-12-1991,2.484375,2.5,372800,2.515625,2.515625,1.8362858295440674
17-12-1991,2.515625,2.515625,683200,2.53125,2.53125,1.8476917743682861
18-12-1991,2.546875,2.546875,112800,2.578125,2.578125,1.8819081783294678
19-12-1991,2.53125,2.5625,392800,2.5625,2.546875,1.859096884727478
20-12-1991,2.5,2.53125,164800,2.53125,2.515625,1.8362858295440674
23-12-1991,2.421875,2.5,1115200,2.5,2.421875,1.7678524255752563
24-12-1991,2.40625,2.421875,107200,2.515625,2.515625,1.8362858295440674
26-12-1991,2.5,2.5,15200,2.515625,2.5,1.8248811960220337
27-12-1991,2.46875,2.5,48000,2.5,2.46875,1.8020693063735962
30-12-1991,2.421875,2.46875,920800,2.46875,2.4375,1.7792577743530273
31-12-1991,2.421875,2.4375,116000,2.484375,2.4375,1.7792577743530273
02-01-1992,2.390625,2.421875,732000,2.421875,2.390625,1.7450425624847412
03-01-1992,2.375,2.390625,277600,2.390625,2.375,1.733636736869812
06-01-1992,2.3125,2.390625,528000,2.390625,2.328125,1.6994203329086304
07-01-1992,2.140625,2.3125,584000,2.3125,2.140625,1.5625543594360352
08-01-1992,2.109375,2.125,692800,2.203125,2.125,1.551148533821106
09-01-1992,2.109375,2.125,348000,2.171875,2.171875,1.5853650569915771
10-01-1992,2.140625,2.15625,840800,2.234375,2.234375,1.6309863328933716
13-01-1992,2.234375,2.234375,456000,2.328125,2.296875,1.6766098737716675
14-01-1992,2.21875,2.296875,281600,2.3125,2.21875,1.6195813417434692
15-01-1992,2.234375,2.234375,377600,2.296875,2.28125,1.6652039289474487
16-01-1992,2.28125,2.28125,80800,2.328125,2.328125,1.6994203329086304
17-01-1992,2.359375,2.359375,47200,2.421875,2.421875,1.7678524255752563
20-01-1992,2.421875,2.421875,91200,2.53125,2.515625,1.8362858295440674
21-01-1992,2.515625,2.53125,578400,2.546875,2.515625,1.8362858295440674
22-01-1992,2.484375,2.515625,300000,2.515625,2.484375,1.8134759664535522
23-01-1992,2.453125,2.46875,313600,2.5,2.453125,1.7906644344329834
24-01-1992,2.3125,2.453125,1104800,2.453125,2.3125,1.6880141496658325
27-01-1992,2.25,2.296875,292800,2.296875,2.265625,1.653798222541809
28-01-1992,2.1875,2.265625,2736800,2.265625,2.1875,1.5967698097229004
29-01-1992,2.15625,2.203125,463200,2.25,2.203125,1.6081761121749878
30-01-1992,2.140625,2.140625,405600,2.21875,2.1875,1.5967698097229004
31-01-1992,2.1875,2.203125,714400,2.296875,2.25,1.642393708229065
03-02-1992,2.21875,2.265625,96800,2.265625,2.234375,1.6309863328933716
04-02-1992,2.1875,2.21875,355200,2.234375,2.203125,1.6081761121749878
05-02-1992,2.15625,2.203125,604000,2.203125,2.171875,1.5853650569915771
06-02-1992,2.09375,2.1875,492800,2.1875,2.09375,1.528338074684143
07-02-1992,2.078125,2.078125,704000,2.21875,2.21875,1.6195813417434692
10-02-1992,2.234375,2.234375,782400,2.34375,2.328125,1.6994203329086304
11-02-1992,2.3125,2.328125,241600,2.34375,2.3125,1.6880141496658325
12-02-1992,2.28125,2.3125,446400,2.328125,2.3125,1.6880141496658325
13-02-1992,2.296875,2.3125,161600,2.3125,2.296875,1.6766098737716675
14-02-1992,2.28125,2.296875,190400,2.328125,2.328125,1.6994203329086304
18-02-1992,2.28125,2.3125,504800,2.3125,2.296875,1.6766098737716675
19-02-1992,2.265625,2.28125,20800,2.28125,2.265625,1.653798222541809
20-02-1992,2.265625,2.265625,260800,2.296875,2.296875,1.6766098737716675
21-02-1992,2.296875,2.296875,311200,2.328125,2.3125,1.6880141496658325
24-02-1992,2.3125,2.328125,249600,2.34375,2.3125,1.6880141496658325
25-02-1992,2.28125,2.3125,144000,2.3125,2.28125,1.6652039289474487
26-02-1992,2.25,2.265625,835200,2.265625,2.265625,1.653798222541809
27-02-1992,2.25,2.25,67200,2.296875,2.265625,1.653798222541809
28-02-1992,2.234375,2.234375,321600,2.265625,2.234375,1.6309863328933716
02-03-1992,2.25,2.25,588800,2.296875,2.25,1.642393708229065
03-03-1992,2.25,2.265625,608800,2.28125,2.25,1.642393708229065
04-03-1992,2.234375,2.234375,488000,2.25,2.25,1.642393708229065
05-03-1992,2.265625,2.265625,607200,2.28125,2.28125,1.6652039289474487
06-03-1992,2.28125,2.28125,404800,2.296875,2.28125,1.6652039289474487
09-03-1992,2.28125,2.28125,348000,2.328125,2.328125,1.6994203329086304
10-03-1992,2.328125,2.328125,348000,2.40625,2.390625,1.7450425624847412
11-03-1992,2.390625,2.40625,376000,2.40625,2.40625,1.7564479112625122
12-03-1992,2.40625,2.4375,347200,2.4375,2.40625,1.7564479112625122
13-03-1992,2.421875,2.4375,138400,2.46875,2.46875,1.8020693063735962
16-03-1992,2.40625,2.5,122400,2.5,2.40625,1.7564479112625122
17-03-1992,2.421875,2.4375,569600,2.4375,2.4375,1.7792577743530273
18-03-1992,2.40625,2.421875,46400,2.421875,2.40625,1.7564479112625122
19-03-1992,2.375,2.4375,394400,2.4375,2.40625,1.7564479112625122
20-03-1992,2.453125,2.46875,232000,2.484375,2.46875,1.8020693063735962
23-03-1992,2.5,2.5,545600,2.546875,2.5,1.8248811960220337
24-03-1992,2.5,2.5,618400,2.578125,2.5625,1.8705018758773804
25-03-1992,2.5625,2.578125,116800,2.578125,2.578125,1.8819081783294678
26-03-1992,2.609375,2.609375,959200,2.734375,2.6875,1.9617478847503662
27-03-1992,2.609375,2.625,236800,2.65625,2.625,1.9161245822906494
30-03-1992,2.609375,2.625,324800,2.625,2.625,1.9161245822906494
31-03-1992,2.640625,2.640625,307200,2.65625,2.65625,1.93893563747406
01-04-1992,2.609375,2.65625,172800,2.65625,2.609375,1.9047197103500366
02-04-1992,2.578125,2.609375,878400,2.609375,2.59375,1.8933136463165283
03-04-1992,2.546875,2.5625,109600,2.5625,2.5625,1.8705018758773804
06-04-1992,2.578125,2.578125,336000,2.734375,2.734375,1.995964765548706
07-04-1992,2.6875,2.734375,612000,2.734375,2.6875,1.9617478847503662
08-04-1992,2.625,2.671875,771200,2.671875,2.625,1.9161245822906494
09-04-1992,2.609375,2.609375,170400,2.75,2.75,2.012159585952759
10-04-1992,2.734375,2.734375,213600,2.75,2.734375,2.0007269382476807
13-04-1992,2.75,2.765625,141600,2.78125,2.765625,2.023592710494995
14-04-1992,2.78125,2.78125,228000,2.8125,2.8125,2.057891368865967
15-04-1992,2.8125,2.8125,312000,2.828125,2.828125,2.069324254989624
16-04-1992,2.8125,2.8125,39200,2.828125,2.8125,2.057891368865967
20-04-1992,2.8125,2.8125,245600,2.890625,2.890625,2.115054130554199
21-04-1992,2.875,2.921875,337600,2.921875,2.90625,2.126488447189331
22-04-1992,2.875,2.890625,8800,2.890625,2.875,2.1036217212677
23-04-1992,2.84375,2.875,1366400,2.984375,2.875,2.1036217212677
24-04-1992,3.0,3.03125,687200,3.171875,3.0,2.1950831413269043
27-04-1992,3.03125,3.0625,511200,3.09375,3.046875,2.2293813228607178
28-04-1992,3.015625,3.046875,234400,3.046875,3.03125,2.2179481983184814
29-04-1992,3.03125,3.046875,237600,3.046875,3.03125,2.2179481983184814
30-04-1992,3.03125,3.046875,1008800,3.0625,3.046875,2.2293813228607178
01-05-1992,3.03125,3.03125,146400,3.046875,3.046875,2.2293813228607178
04-05-1992,3.0625,3.0625,251200,3.078125,3.0625,2.240813732147217
05-05-1992,3.046875,3.046875,532000,3.078125,3.078125,2.252246618270874
06-05-1992,3.015625,3.078125,792800,3.078125,3.015625,2.206516742706299
07-05-1992,2.96875,3.015625,61600,3.015625,2.96875,2.172217845916748
08-05-1992,2.9375,3.0,42400,3.0,2.953125,2.1607847213745117
11-05-1992,2.90625,2.953125,91200,2.953125,2.90625,2.126488447189331
12-05-1992,2.75,2.921875,1191200,2.921875,2.796875,2.0464565753936768
13-05-1992,2.765625,2.796875,261600,2.796875,2.765625,2.023592710494995
14-05-1992,2.6875,2.765625,1236800,2.84375,2.84375,2.0807559490203857
15-05-1992,2.8125,2.828125,509600,2.90625,2.890625,2.115054130554199
18-05-1992,2.90625,2.90625,431200,3.015625,3.0,2.1950831413269043
19-05-1992,2.953125,3.0,572000,3.046875,3.046875,2.2293813228607178
20-05-1992,3.0625,3.0625,200800,3.09375,3.09375,2.263681411743164
21-05-1992,3.078125,3.078125,946400,3.15625,3.09375,2.263681411743164
22-05-1992,3.078125,3.09375,230400,3.15625,3.140625,2.297977924346924
26-05-1992,3.125,3.140625,1300800,3.1875,3.1875,2.332275867462158
27-05-1992,3.125,3.203125,1122400,3.25,3.125,2.2865452766418457
28-05-1992,3.078125,3.140625,627200,3.140625,3.125,2.2865452766418457
29-05-1992,3.078125,3.125,368800,3.125,3.09375,2.263681411743164
01-06-1992,3.078125,3.078125,348800,3.171875,3.171875,2.320842742919922
02-06-1992,3.125,3.140625,108000,3.15625,3.140625,2.297977924346924
03-06-1992,3.125,3.15625,1278400,3.1875,3.15625,2.30941104888916
04-06-1992,3.125,3.125,1169600,3.140625,3.140625,2.297977924346924
05-06-1992,3.140625,3.15625,816800,3.1875,3.1875,2.332275867462158
08-06-1992,3.21875,3.21875,1822400,3.375,3.3125,2.4237382411956787
09-06-1992,3.28125,3.3125,2077600,3.34375,3.3125,2.4237382411956787
10-06-1992,3.21875,3.3125,778400,3.3125,3.28125,2.4008724689483643
11-06-1992,3.28125,3.28125,438400,3.40625,3.40625,2.4923343658447266
12-06-1992,3.34375,3.375,2042400,3.375,3.34375,2.446603775024414
15-06-1992,3.296875,3.328125,2438400,3.328125,3.3125,2.4237382411956787
16-06-1992,3.296875,3.328125,660800,3.328125,3.296875,2.4123036861419678
17-06-1992,3.21875,3.3125,673600,3.3125,3.234375,2.366572856903076
18-06-1992,3.21875,3.21875,948800,3.265625,3.234375,2.366572856903076
19-06-1992,3.234375,3.25,417600,3.265625,3.234375,2.366572856903076
22-06-1992,3.203125,3.203125,568000,3.21875,3.203125,2.3437085151672363
23-06-1992,3.203125,3.203125,518400,3.21875,3.203125,2.3437085151672363
24-06-1992,3.171875,3.21875,224000,3.21875,3.21875,2.3551409244537354
25-06-1992,3.125,3.21875,307200,3.21875,3.125,2.2865452766418457
26-06-1992,3.109375,3.125,629600,3.140625,3.140625,2.297977924346924
29-06-1992,3.125,3.125,1169600,3.1875,3.171875,2.320842742919922
30-06-1992,3.15625,3.1875,1156800,3.1875,3.1875,2.332275867462158
01-07-1992,3.203125,3.21875,694400,3.25,3.25,2.3780064582824707
02-07-1992,3.25,3.28125,2007200,3.296875,3.28125,2.4008724689483643
06-07-1992,3.296875,3.3125,771200,3.328125,3.3125,2.4237382411956787
07-07-1992,3.3125,3.3125,655200,3.359375,3.328125,2.435170888900757
08-07-1992,3.3125,3.328125,480800,3.34375,3.328125,2.435170888900757
09-07-1992,3.328125,3.34375,424000,3.375,3.359375,2.4626595973968506
10-07-1992,3.328125,3.390625,568800,3.390625,3.328125,2.4397523403167725
13-07-1992,3.328125,3.328125,624800,3.359375,3.359375,2.4626595973968506
14-07-1992,3.390625,3.390625,627200,3.625,3.578125,2.6230204105377197
15-07-1992,3.515625,3.59375,465600,3.609375,3.53125,2.5886571407318115
16-07-1992,3.390625,3.5,143200,3.5,3.421875,2.5084776878356934
17-07-1992,3.421875,3.4375,45600,3.453125,3.4375,2.519932746887207
20-07-1992,3.390625,3.4375,645600,3.453125,3.390625,2.485570192337036
21-07-1992,3.390625,3.390625,224000,3.421875,3.40625,2.497022867202759
22-07-1992,3.40625,3.40625,235200,3.484375,3.484375,2.5542938709259033
23-07-1992,3.46875,3.5,112000,3.515625,3.5,2.565747022628784
24-07-1992,3.5,3.5,329600,3.609375,3.609375,2.6459293365478516
27-07-1992,3.5625,3.609375,66400,3.609375,3.59375,2.634474039077759
28-07-1992,3.53125,3.59375,91200,3.59375,3.5625,2.611565589904785
29-07-1992,3.546875,3.5625,84800,3.578125,3.578125,2.6230204105377197
30-07-1992,3.5625,3.5625,565600,3.640625,3.640625,2.668837308883667
31-07-1992,3.625,3.640625,500800,3.65625,3.640625,2.668837308883667
03-08-1992,3.625,3.625,492000,3.703125,3.703125,2.714653968811035
04-08-1992,3.6875,3.6875,398400,3.71875,3.71875,2.7261078357696533
05-08-1992,3.375,3.59375,268800,3.59375,3.40625,2.497022867202759
06-08-1992,3.171875,3.25,1166400,3.265625,3.25,2.3824806213378906
07-08-1992,3.25,3.25,996000,3.515625,3.515625,2.5772037506103516
10-08-1992,3.5,3.515625,88000,3.5625,3.546875,2.6001110076904297
11-08-1992,3.546875,3.546875,2608000,3.5625,3.546875,2.6001110076904297
12-08-1992,3.5625,3.5625,92800,3.59375,3.59375,2.634474039077759
13-08-1992,3.609375,3.625,684800,3.734375,3.734375,2.737563371658325
14-08-1992,3.734375,3.78125,1344000,3.84375,3.75,2.7490158081054688
17-08-1992,3.671875,3.71875,1498400,3.71875,3.6875,2.7031986713409424
18-08-1992,3.578125,3.671875,823200,3.6875,3.59375,2.634474039077759
19-08-1992,3.5,3.5,844800,3.6875,3.5625,2.611565589904785
20-08-1992,3.5625,3.625,7611200,3.640625,3.59375,2.634474039077759
21-08-1992,3.59375,3.609375,1631200,3.640625,3.59375,2.634474039077759
24-08-1992,3.578125,3.578125,1412000,3.609375,3.578125,2.6230204105377197
25-08-1992,3.578125,3.578125,1002400,3.71875,3.671875,2.6917455196380615
26-08-1992,3.6875,3.6875,1988000,3.75,3.75,2.7490158081054688
27-08-1992,3.71875,3.734375,872800,3.796875,3.78125,2.7719249725341797
28-08-1992,3.8125,3.8125,1732800,3.9375,3.9375,2.8864669799804688
31-08-1992,3.84375,3.90625,1392800,3.984375,3.875,2.840651035308838
01-09-1992,3.859375,3.875,740000,3.9375,3.90625,2.863558292388916
02-09-1992,3.875,3.9375,458400,3.953125,3.890625,2.8521053791046143
03-09-1992,3.890625,3.90625,617600,3.921875,3.921875,2.875013828277588
04-09-1992,3.921875,3.921875,190400,3.96875,3.953125,2.897920608520508
08-09-1992,3.953125,3.953125,1150400,4.09375,4.078125,2.9895553588867188
09-09-1992,4.0625,4.078125,660000,4.09375,4.09375,3.0010106563568115
10-09-1992,4.0625,4.09375,809600,4.109375,4.078125,2.9895553588867188
11-09-1992,4.0625,4.078125,549600,4.109375,4.109375,3.012463331222534
14-09-1992,4.109375,4.140625,684000,4.171875,4.125,3.0239171981811523
15-09-1992,4.109375,4.125,557600,4.140625,4.109375,3.012463331222534
16-09-1992,4.09375,4.109375,723200,4.171875,4.125,3.0239171981811523
17-09-1992,4.125,4.125,565600,4.28125,4.21875,3.0926437377929688
18-09-1992,4.1875,4.1875,668000,4.3125,4.3125,3.1613693237304688
21-09-1992,4.328125,4.328125,808000,4.34375,4.34375,3.184276819229126
22-09-1992,4.296875,4.3125,662400,4.375,4.359375,3.195729970932007
23-09-1992,4.359375,4.375,898400,4.46875,4.375,3.2071845531463623
24-09-1992,4.390625,4.390625,1256800,4.484375,4.46875,3.2759106159210205
25-09-1992,4.203125,4.421875,1837600,4.4375,4.25,3.1155529022216797
28-09-1992,4.109375,4.25,1749600,4.25,4.125,3.0239171981811523
29-09-1992,4.171875,4.203125,276800,4.234375,4.234375,3.104097843170166
30-09-1992,4.15625,4.21875,330400,4.234375,4.15625,3.0468273162841797
01-10-1992,4.03125,4.140625,378400,4.140625,4.03125,2.9551923274993896
02-10-1992,4.015625,4.046875,772800,4.078125,4.046875,2.966646194458008
05-10-1992,3.953125,4.046875,312000,4.046875,3.96875,2.9093759059906006
06-10-1992,3.90625,3.96875,885600,3.96875,3.9375,2.8864669799804688
07-10-1992,3.953125,3.953125,649600,4.015625,3.984375,2.920830011367798
08-10-1992,3.96875,3.96875,266400,4.0625,4.0,2.9368910789489746
09-10-1992,3.90625,3.96875,112000,4.03125,3.9375,2.8910021781921387
12-10-1992,3.9375,3.9375,351200,3.953125,3.953125,2.9024734497070312
13-10-1992,3.890625,3.9375,412000,3.953125,3.9375,2.8910021781921387
14-10-1992,3.921875,3.9375,341600,3.953125,3.9375,2.8910021781921387
15-10-1992,3.90625,3.9375,205600,3.9375,3.90625,2.8680570125579834
16-10-1992,3.921875,3.921875,1151200,4.078125,4.0625,2.9827797412872314
19-10-1992,4.0625,4.0625,756000,4.3125,4.28125,3.1433913707733154
20-10-1992,4.203125,4.265625,209600,4.265625,4.21875,3.0975024700164795
21-10-1992,4.140625,4.203125,104800,4.203125,4.15625,3.0516138076782227
22-10-1992,3.953125,4.140625,365600,4.140625,3.953125,2.9024734497070312
23-10-1992,3.9375,3.96875,101600,3.96875,3.953125,2.9024734497070312
26-10-1992,3.953125,3.953125,396800,4.015625,4.0,2.9368910789489746
27-10-1992,3.8125,3.984375,318400,3.984375,3.859375,2.8336408138275146
28-10-1992,3.71875,3.859375,920800,3.859375,3.828125,2.8106961250305176
29-10-1992,3.828125,3.828125,348000,3.90625,3.84375,2.822169780731201
30-10-1992,3.8125,3.875,143200,3.875,3.8125,2.799225091934204
02-11-1992,3.828125,3.828125,156800,3.875,3.875,2.845114231109619
03-11-1992,3.75,3.875,296800,3.875,3.75,2.7533347606658936
04-11-1992,3.65625,3.765625,464000,3.78125,3.65625,2.684501886367798
05-11-1992,3.46875,3.625,1245600,3.625,3.484375,2.558306932449341
06-11-1992,3.53125,3.53125,1823200,3.671875,3.65625,2.684501886367798
09-11-1992,3.5,3.625,1322400,3.65625,3.546875,2.604196310043335
10-11-1992,3.5625,3.5625,1669600,3.625,3.625,2.661557197570801
11-11-1992,3.5625,3.625,551200,3.625,3.5625,2.615668773651123
12-11-1992,3.5625,3.625,1320800,3.640625,3.578125,2.6271414756774902
13-11-1992,3.59375,3.609375,324000,3.640625,3.625,2.661557197570801
16-11-1992,3.609375,3.609375,257600,3.65625,3.65625,2.684501886367798
17-11-1992,3.625,3.625,304000,3.640625,3.625,2.661557197570801
18-11-1992,3.625,3.625,693600,3.640625,3.640625,2.673030138015747
19-11-1992,3.46875,3.609375,821600,3.640625,3.5,2.5697784423828125
20-11-1992,3.53125,3.53125,536800,3.59375,3.59375,2.638613224029541
23-11-1992,3.5625,3.5625,660000,3.671875,3.625,2.661557197570801
24-11-1992,3.578125,3.609375,503200,3.609375,3.59375,2.638613224029541
25-11-1992,3.578125,3.578125,96000,3.609375,3.59375,2.638613224029541
27-11-1992,3.578125,3.59375,230400,3.625,3.625,2.661557197570801
30-11-1992,3.53125,3.625,539200,3.625,3.546875,2.604196310043335
01-12-1992,3.53125,3.546875,1116800,3.546875,3.53125,2.592724323272705
02-12-1992,3.53125,3.53125,721600,3.578125,3.578125,2.6271414756774902
03-12-1992,3.421875,3.5625,1191200,3.5625,3.4375,2.5238916873931885
04-12-1992,3.421875,3.4375,1249600,3.5,3.5,2.5697784423828125
07-12-1992,3.484375,3.484375,167200,3.546875,3.5,2.5697784423828125
08-12-1992,3.453125,3.5,580000,3.515625,3.484375,2.558306932449341
09-12-1992,3.484375,3.5,374400,3.546875,3.53125,2.592724323272705
10-12-1992,3.484375,3.546875,1601600,3.609375,3.609375,2.650085926055908
11-12-1992,3.65625,3.65625,151200,3.703125,3.671875,2.695974349975586
14-12-1992,3.609375,3.671875,920000,3.671875,3.65625,2.684501886367798
15-12-1992,3.609375,3.640625,406400,3.640625,3.625,2.661557197570801
16-12-1992,3.59375,3.609375,402400,3.625,3.59375,2.638613224029541
17-12-1992,3.5625,3.609375,52800,3.609375,3.5625,2.615668773651123
18-12-1992,3.578125,3.59375,295200,3.59375,3.59375,2.638613224029541
21-12-1992,3.546875,3.578125,488000,3.578125,3.546875,2.604196310043335
22-12-1992,3.53125,3.5625,960800,3.5625,3.546875,2.604196310043335
23-12-1992,3.515625,3.546875,1008000,3.546875,3.515625,2.5812530517578125
24-12-1992,3.53125,3.546875,655200,3.59375,3.59375,2.638613224029541
28-12-1992,3.53125,3.578125,97600,3.578125,3.546875,2.604196310043335
29-12-1992,3.53125,3.546875,596000,3.59375,3.5625,2.615668773651123
30-12-1992,3.546875,3.578125,639200,3.578125,3.546875,2.604196310043335
31-12-1992,3.5625,3.5625,376000,3.6875,3.671875,2.695974349975586
04-01-1993,3.609375,3.6875,597600,3.71875,3.609375,2.650085926055908
05-01-1993,3.578125,3.609375,715200,3.6875,3.6875,2.7074456214904785
06-01-1993,3.59375,3.6875,928800,3.6875,3.609375,2.650085926055908
07-01-1993,3.5625,3.609375,333600,3.609375,3.578125,2.6271414756774902
08-01-1993,3.46875,3.578125,1617600,3.578125,3.46875,2.546835422515869
11-01-1993,3.375,3.484375,410400,3.484375,3.390625,2.4948668479919434
12-01-1993,3.359375,3.390625,269600,3.40625,3.40625,2.5063655376434326
13-01-1993,3.359375,3.40625,826400,3.484375,3.46875,2.5523550510406494
14-01-1993,3.34375,3.4375,619200,3.453125,3.34375,2.4603776931762695
15-01-1993,3.359375,3.375,1232800,3.421875,3.390625,2.4948668479919434
18-01-1993,3.359375,3.390625,460000,3.390625,3.375,2.483370542526245
19-01-1993,3.359375,3.359375,1157600,3.484375,3.453125,2.54085636138916
20-01-1993,3.4375,3.453125,132800,3.484375,3.46875,2.5523550510406494
21-01-1993,3.4375,3.4375,272800,3.5,3.5,2.5753493309020996
22-01-1993,3.5,3.515625,540800,3.59375,3.59375,2.64432954788208
25-01-1993,3.578125,3.578125,969600,3.703125,3.6875,2.7133126258850098
26-01-1993,3.78125,3.8125,1224000,3.875,3.78125,2.7822954654693604
27-01-1993,3.703125,3.734375,636000,3.765625,3.75,2.759300708770752
28-01-1993,3.75,3.765625,773600,3.90625,3.90625,2.8742730617523193
29-01-1993,3.890625,3.90625,492800,4.0,3.96875,2.9202609062194824
01-02-1993,4.0,4.0,1876800,4.078125,4.0625,2.989244222640991
02-02-1993,4.046875,4.046875,1044000,4.09375,4.09375,3.0122368335723877
03-02-1993,4.09375,4.09375,1448000,4.359375,4.296875,3.161698341369629
04-02-1993,4.328125,4.328125,1330400,4.4375,4.4375,3.26517391204834
05-02-1993,4.4375,4.4375,1606400,4.515625,4.5,3.3111624717712402
08-02-1993,4.46875,4.5,1975200,4.5,4.5,3.3111624717712402
09-02-1993,4.40625,4.5,756000,4.5,4.421875,3.253676414489746
10-02-1993,4.359375,4.421875,800000,4.453125,4.375,3.2191836833953857
11-02-1993,4.359375,4.359375,971200,4.5,4.484375,3.299663782119751
12-02-1993,4.46875,4.484375,932000,4.484375,4.484375,3.299663782119751
16-02-1993,4.34375,4.46875,292800,4.46875,4.34375,3.19619083404541
17-02-1993,4.34375,4.359375,632800,4.40625,4.390625,3.230682611465454
18-02-1993,4.421875,4.421875,604800,4.484375,4.4375,3.26517391204834
19-02-1993,4.421875,4.4375,3408800,4.515625,4.5,3.3111624717712402
22-02-1993,4.5,4.5,1140000,4.609375,4.5625,3.3571512699127197
23-02-1993,4.5,4.59375,664000,4.59375,4.546875,3.345654249191284
24-02-1993,4.46875,4.515625,499200,4.515625,4.484375,3.299663782119751
25-02-1993,4.359375,4.484375,259200,4.484375,4.359375,3.2076897621154785
26-02-1993,4.359375,4.390625,128000,4.421875,4.40625,3.2421791553497314
01-03-1993,4.421875,4.4375,1396000,4.53125,4.4375,3.26517391204834
02-03-1993,4.4375,4.46875,332800,4.484375,4.453125,3.2766714096069336
03-03-1993,4.46875,4.46875,4088800,4.84375,4.78125,3.518108606338501
04-03-1993,4.640625,4.75,913600,4.78125,4.734375,3.4836184978485107
05-03-1993,4.6875,4.71875,335200,4.734375,4.6875,3.449127197265625
08-03-1993,4.703125,4.703125,472000,4.796875,4.78125,3.518108606338501
09-03-1993,4.75,4.796875,324000,4.796875,4.78125,3.518108606338501
10-03-1993,4.734375,4.78125,199200,4.8125,4.8125,3.5411040782928467
11-03-1993,4.796875,4.8125,213600,4.921875,4.890625,3.598588228225708
12-03-1993,4.796875,4.921875,702400,4.921875,4.84375,3.5640978813171387
15-03-1993,4.84375,4.84375,209600,4.875,4.875,3.5870938301086426
16-03-1993,4.84375,4.859375,316800,4.875,4.859375,3.575594902038574
17-03-1993,4.859375,4.875,136800,4.984375,4.984375,3.6675727367401123
18-03-1993,4.921875,4.96875,444000,5.0,5.0,3.6790711879730225
19-03-1993,4.96875,4.984375,300800,5.0,4.96875,3.6560730934143066
22-03-1993,4.96875,4.984375,640800,5.0,4.984375,3.6675727367401123
23-03-1993,4.96875,5.015625,100800,5.015625,4.96875,3.6560730934143066
24-03-1993,4.96875,4.96875,574400,5.078125,4.96875,3.6560730934143066
25-03-1993,4.84375,4.90625,1020000,4.921875,4.84375,3.5640978813171387
26-03-1993,4.8125,4.84375,753600,4.921875,4.90625,3.6100854873657227
29-03-1993,4.921875,4.921875,589600,4.984375,4.984375,3.6675727367401123
30-03-1993,5.0,5.0,663200,5.03125,5.03125,3.7020645141601562
31-03-1993,4.96875,5.03125,558400,5.03125,5.015625,3.690565586090088
01-04-1993,4.984375,5.03125,537600,5.03125,5.0,3.6790711879730225
02-04-1993,4.859375,4.953125,240800,4.953125,4.890625,3.598588228225708
05-04-1993,4.875,4.90625,292800,4.90625,4.90625,3.6100854873657227
06-04-1993,4.875,4.90625,604800,4.90625,4.875,3.5870938301086426
07-04-1993,4.8125,4.84375,860000,4.875,4.875,3.5870938301086426
08-04-1993,4.859375,4.859375,24000,4.875,4.875,3.592618227005005
12-04-1993,4.859375,4.859375,325600,4.96875,4.96875,3.6617090702056885
13-04-1993,4.84375,4.96875,1076800,5.03125,4.875,3.592618227005005
14-04-1993,4.84375,4.890625,447200,4.890625,4.84375,3.569589376449585
15-04-1993,4.8125,4.875,231200,4.921875,4.8125,3.546560287475586
16-04-1993,4.796875,4.828125,356800,4.84375,4.84375,3.569589376449585
19-04-1993,4.828125,4.828125,173600,4.890625,4.875,3.592618227005005
20-04-1993,4.90625,4.90625,1133600,5.0625,4.984375,3.673224925994873
21-04-1993,4.875,5.015625,185600,5.015625,4.875,3.592618227005005
22-04-1993,4.671875,4.84375,335200,4.84375,4.671875,3.442927598953247
23-04-1993,4.46875,4.671875,786400,4.671875,4.5,3.3162636756896973
26-04-1993,4.515625,4.53125,367200,4.640625,4.625,3.4083828926086426
27-04-1993,4.625,4.65625,108000,4.65625,4.640625,3.419898509979248
28-04-1993,4.625,4.625,189600,4.640625,4.640625,3.419898509979248
29-04-1993,4.625,4.65625,383200,4.75,4.75,3.500500440597534
30-04-1993,4.75,4.75,779200,4.96875,4.921875,3.6271629333496094
03-05-1993,4.953125,4.953125,249600,4.984375,4.953125,3.6501924991607666
04-05-1993,4.90625,4.921875,1332800,4.953125,4.921875,3.6271629333496094
05-05-1993,4.921875,4.921875,65600,4.9375,4.921875,3.6271629333496094
06-05-1993,4.921875,4.921875,664800,5.0,4.9375,3.638678789138794
07-05-1993,4.90625,4.921875,186400,4.96875,4.921875,3.6271629333496094
10-05-1993,4.8125,4.9375,828000,4.9375,4.8125,3.546560287475586
11-05-1993,4.78125,4.78125,1120800,4.953125,4.9375,3.638678789138794
12-05-1993,4.90625,4.9375,852000,4.984375,4.953125,3.6501924991607666
13-05-1993,4.90625,4.90625,702400,5.09375,5.0625,3.7307960987091064
14-05-1993,5.0625,5.0625,931200,5.265625,5.171875,3.8114004135131836
17-05-1993,5.15625,5.171875,390400,5.203125,5.203125,3.834430694580078
18-05-1993,5.203125,5.203125,340800,5.328125,5.296875,3.903517961502075
19-05-1993,5.1875,5.3125,412800,5.3125,5.234375,3.857459783554077
20-05-1993,5.21875,5.21875,216000,5.25,5.234375,3.857459783554077
21-05-1993,5.203125,5.234375,400000,5.234375,5.21875,3.845942974090576
24-05-1993,5.21875,5.25,496000,5.25,5.234375,3.857459783554077
25-05-1993,5.171875,5.1875,400800,5.25,5.1875,3.822915554046631
26-05-1993,5.15625,5.1875,188000,5.203125,5.203125,3.834430694580078
27-05-1993,5.203125,5.203125,511200,5.3125,5.3125,3.9150333404541016
28-05-1993,5.28125,5.296875,473600,5.3125,5.3125,3.9150333404541016
01-06-1993,5.328125,5.34375,619200,5.4375,5.40625,3.984123706817627
02-06-1993,5.40625,5.40625,522400,5.625,5.5625,4.099271297454834
03-06-1993,5.484375,5.5625,403200,5.5625,5.515625,4.064725875854492
04-06-1993,5.484375,5.5,889600,5.515625,5.5,4.053208827972412
07-06-1993,5.484375,5.5,482400,5.515625,5.5,4.053208827972412
08-06-1993,5.421875,5.484375,277600,5.484375,5.4375,4.0071516036987305
09-06-1993,5.40625,5.40625,262400,5.5,5.5,4.053208827972412
10-06-1993,5.4375,5.484375,779200,5.484375,5.4375,4.0071516036987305
11-06-1993,5.234375,5.40625,606400,5.40625,5.234375,3.857459783554077
14-06-1993,5.125,5.21875,763200,5.21875,5.125,3.7768568992614746
15-06-1993,5.125,5.125,288800,5.15625,5.125,3.7768568992614746
16-06-1993,5.140625,5.140625,219200,5.203125,5.203125,3.834430694580078
17-06-1993,5.21875,5.21875,193600,5.328125,5.25,3.868974208831787
18-06-1993,5.265625,5.28125,224800,5.296875,5.265625,3.8804876804351807
21-06-1993,5.28125,5.28125,292800,5.359375,5.34375,3.938063144683838
22-06-1993,5.265625,5.34375,1112000,5.34375,5.265625,3.8804876804351807
23-06-1993,5.265625,5.265625,2466400,5.296875,5.296875,3.903517961502075
24-06-1993,5.0625,5.296875,637600,5.296875,5.125,3.7768568992614746
25-06-1993,5.109375,5.125,36000,5.125,5.125,3.7768568992614746
28-06-1993,5.125,5.125,204800,5.140625,5.140625,3.7883706092834473
29-06-1993,4.984375,5.109375,648000,5.125,5.046875,3.71928071975708
30-06-1993,5.03125,5.0625,552000,5.09375,5.09375,3.7538254261016846
01-07-1993,5.015625,5.078125,376800,5.078125,5.046875,3.71928071975708
02-07-1993,5.015625,5.0625,100000,5.0625,5.046875,3.71928071975708
06-07-1993,5.0,5.046875,437600,5.09375,5.0,3.6847376823425293
07-07-1993,4.96875,4.96875,1369600,5.078125,5.078125,3.742309093475342
08-07-1993,5.078125,5.078125,955200,5.1875,5.1875,3.822915554046631
09-07-1993,5.171875,5.171875,1352000,5.25,5.25,3.874574899673462
12-07-1993,5.28125,5.28125,900000,5.34375,5.3125,3.9207024574279785
13-07-1993,5.28125,5.3125,100000,5.3125,5.28125,3.897639036178589
14-07-1993,5.28125,5.28125,538400,5.3125,5.28125,3.897639036178589
15-07-1993,5.21875,5.3125,338400,5.3125,5.25,3.874574899673462
16-07-1993,5.234375,5.25,147200,5.265625,5.25,3.874574899673462
19-07-1993,5.25,5.296875,417600,5.296875,5.28125,3.897639036178589
20-07-1993,5.25,5.25,713600,5.3125,5.3125,3.9207024574279785
21-07-1993,5.3125,5.3125,395200,5.34375,5.3125,3.9207024574279785
22-07-1993,5.28125,5.3125,314400,5.3125,5.296875,3.9091691970825195
23-07-1993,5.25,5.296875,341600,5.3125,5.3125,3.9207024574279785
26-07-1993,5.296875,5.34375,196000,5.34375,5.296875,3.9091691970825195
27-07-1993,5.21875,5.265625,191200,5.28125,5.25,3.874574899673462
28-07-1993,5.234375,5.25,356800,5.296875,5.265625,3.886104106903076
29-07-1993,5.25,5.265625,98400,5.3125,5.296875,3.9091691970825195
30-07-1993,5.3125,5.3125,57600,5.328125,5.328125,3.93223237991333
02-08-1993,5.3125,5.328125,1029600,5.46875,5.46875,4.036019802093506
03-08-1993,5.484375,5.484375,356000,5.578125,5.5625,4.105207443237305
04-08-1993,5.546875,5.546875,400000,5.65625,5.625,4.151331901550293
05-08-1993,5.609375,5.609375,56000,5.640625,5.625,4.151331901550293
06-08-1993,5.578125,5.625,348800,5.625,5.59375,4.128268718719482
09-08-1993,5.609375,5.609375,344800,5.6875,5.6875,4.197458267211914
10-08-1993,5.6875,5.6875,632800,5.75,5.75,4.243585586547852
11-08-1993,5.78125,5.78125,784800,6.0,6.0,4.428084850311279
12-08-1993,5.984375,6.0,1103200,6.21875,6.015625,4.439616680145264
13-08-1993,5.9375,6.03125,226400,6.03125,5.9375,4.381962299346924
16-08-1993,5.9375,5.9375,448000,5.984375,5.984375,4.416556358337402
17-08-1993,6.0625,6.0625,640000,6.25,6.25,4.612591743469238
18-08-1993,6.234375,6.234375,805600,6.484375,6.421875,4.739437580108643
19-08-1993,6.3125,6.4375,424000,6.46875,6.3125,4.658716678619385
20-08-1993,6.3125,6.3125,914400,6.453125,6.453125,4.762500286102295
23-08-1993,6.453125,6.46875,964800,6.703125,6.703125,4.947002410888672
24-08-1993,6.53125,6.703125,704000,6.703125,6.5625,4.84322452545166
25-08-1993,6.4375,6.5625,753600,6.578125,6.453125,4.762500286102295
26-08-1993,6.25,6.453125,817600,6.453125,6.296875,4.647184371948242
27-08-1993,6.03125,6.28125,627200,6.28125,6.125,4.520339012145996
30-08-1993,6.109375,6.125,529600,6.25,6.21875,4.589529037475586
31-08-1993,6.171875,6.234375,888000,6.328125,6.28125,4.635653972625732
01-09-1993,6.28125,6.28125,388800,6.390625,6.375,4.704842567443848
02-09-1993,6.28125,6.375,286400,6.375,6.28125,4.635653972625732
03-09-1993,6.28125,6.28125,135200,6.328125,6.296875,4.647184371948242
07-09-1993,6.125,6.296875,236800,6.328125,6.125,4.520339012145996
08-09-1993,5.953125,6.125,388800,6.125,5.953125,4.39349365234375
09-09-1993,5.921875,5.953125,533600,5.984375,5.96875,4.405023097991943
10-09-1993,5.953125,5.96875,121600,5.984375,5.984375,4.416556358337402
13-09-1993,5.921875,5.984375,472800,6.03125,5.921875,4.370428085327148
14-09-1993,5.90625,5.953125,633600,5.96875,5.9375,4.381962299346924
15-09-1993,5.921875,5.9375,994400,6.046875,6.0,4.428084850311279
16-09-1993,6.0,6.0,152800,6.03125,6.0,4.428084850311279
17-09-1993,5.890625,5.96875,127200,5.96875,5.9375,4.381962299346924
20-09-1993,5.9375,5.9375,248000,5.96875,5.96875,4.405023097991943
21-09-1993,5.96875,5.96875,218400,6.03125,6.015625,4.439616680145264
22-09-1993,5.96875,6.0,99200,6.03125,5.96875,4.405023097991943
23-09-1993,5.953125,5.984375,232800,5.984375,5.984375,4.416556358337402
24-09-1993,5.953125,5.96875,357600,6.0,5.96875,4.405023097991943
27-09-1993,5.953125,5.953125,441600,6.0,5.984375,4.416556358337402
28-09-1993,5.921875,5.984375,326400,5.984375,5.9375,4.381962299346924
29-09-1993,5.9375,5.9375,1200800,6.453125,6.453125,4.762500286102295
30-09-1993,6.453125,6.453125,755200,6.625,6.625,4.889346599578857
01-10-1993,6.59375,6.59375,599200,6.71875,6.71875,4.958535194396973
04-10-1993,6.640625,6.71875,248000,6.75,6.640625,4.90087890625
05-10-1993,6.578125,6.65625,122400,6.65625,6.578125,4.854750633239746
06-10-1993,6.5,6.578125,114400,6.578125,6.53125,4.820158004760742
07-10-1993,6.4375,6.5,224000,6.5,6.484375,4.785562992095947
08-10-1993,6.40625,6.484375,245600,6.484375,6.421875,4.744925498962402
11-10-1993,6.25,6.421875,288000,6.421875,6.25,4.6179327964782715
12-10-1993,6.125,6.25,272800,6.25,6.125,4.52557373046875
13-10-1993,5.96875,6.078125,826400,6.109375,5.984375,4.421669960021973
14-10-1993,6.0,6.09375,388000,6.125,6.03125,4.456302642822266
15-10-1993,5.828125,6.0,707200,6.0,5.875,4.340857982635498
18-10-1993,5.71875,5.875,719200,5.875,5.75,4.248499870300293
19-10-1993,5.484375,5.75,1467200,5.875,5.828125,4.306221008300781
20-10-1993,5.3125,5.796875,1626400,5.796875,5.3125,3.9252424240112305
21-10-1993,5.4375,5.4375,3216000,5.6875,5.5,4.063780307769775
22-10-1993,5.375,5.5,928800,5.5,5.375,3.9714231491088867
25-10-1993,5.28125,5.375,901600,5.421875,5.28125,3.9021522998809814
26-10-1993,5.0,5.28125,1536800,5.3125,5.03125,3.717435121536255
27-10-1993,5.0625,5.0625,1416000,5.1875,5.1875,3.832886219024658
28-10-1993,5.1875,5.1875,1215200,5.453125,5.453125,4.02914571762085
29-10-1993,5.328125,5.421875,412800,5.46875,5.34375,3.9483296871185303
01-11-1993,5.34375,5.359375,379200,5.484375,5.453125,4.02914571762085
02-11-1993,5.453125,5.453125,553600,5.578125,5.5625,4.109961032867432
03-11-1993,5.578125,5.609375,540800,5.671875,5.625,4.156138896942139
04-11-1993,5.625,5.65625,345600,5.734375,5.625,4.156138896942139
05-11-1993,5.53125,5.625,112800,5.625,5.5625,4.109961032867432
08-11-1993,5.46875,5.5625,207200,5.5625,5.46875,4.040693759918213
09-11-1993,5.1875,5.46875,542400,5.46875,5.21875,3.8559730052948
10-11-1993,5.21875,5.25,191200,5.28125,5.265625,3.890604257583618
11-11-1993,5.203125,5.28125,564800,5.40625,5.21875,3.8559730052948
12-11-1993,5.0625,5.203125,1202400,5.203125,5.203125,3.8444297313690186
15-11-1993,5.140625,5.203125,675200,5.234375,5.140625,3.798248767852783
16-11-1993,4.875,4.96875,827200,4.984375,4.9375,3.6481668949127197
17-11-1993,4.9375,5.0,1617600,5.203125,5.203125,3.8444297313690186
18-11-1993,5.15625,5.203125,463200,5.359375,5.296875,3.913696050643921
19-11-1993,5.21875,5.25,85600,5.265625,5.265625,3.890604257583618
22-11-1993,5.078125,5.25,173600,5.25,5.078125,3.7520675659179688
23-11-1993,5.078125,5.109375,697600,5.21875,5.09375,3.7636144161224365
24-11-1993,5.109375,5.109375,556800,5.15625,5.15625,3.80979061126709
26-11-1993,5.03125,5.125,94400,5.125,5.03125,3.717435121536255
29-11-1993,4.828125,4.96875,1270400,4.96875,4.828125,3.5673515796661377
30-11-1993,4.78125,4.84375,457600,4.859375,4.828125,3.5673515796661377
01-12-1993,4.828125,4.859375,316000,4.921875,4.859375,3.5904417037963867
02-12-1993,4.84375,4.84375,429600,4.90625,4.859375,3.5904417037963867
03-12-1993,4.875,4.875,142400,4.90625,4.875,3.601986885070801
06-12-1993,4.84375,4.875,308800,4.90625,4.890625,3.613530397415161
07-12-1993,4.859375,4.875,528800,4.953125,4.90625,3.6250762939453125
08-12-1993,4.84375,4.890625,89600,4.890625,4.859375,3.5904417037963867
09-12-1993,4.71875,4.859375,69600,4.859375,4.78125,3.5327179431915283
10-12-1993,4.796875,4.796875,271200,4.84375,4.828125,3.5673515796661377
13-12-1993,4.71875,4.859375,102400,4.859375,4.765625,3.5211751461029053
14-12-1993,4.734375,4.796875,620800,4.8125,4.8125,3.555806875228882
15-12-1993,4.71875,4.765625,128000,4.765625,4.734375,3.4980857372283936
16-12-1993,4.75,4.75,565600,4.84375,4.78125,3.5327179431915283
17-12-1993,4.734375,4.796875,200800,4.8125,4.75,3.5096275806427
20-12-1993,4.40625,4.71875,927200,4.71875,4.515625,3.3364553451538086
21-12-1993,4.265625,4.546875,880000,4.546875,4.4375,3.2787303924560547
22-12-1993,4.40625,4.453125,676000,4.75,4.734375,3.4980857372283936
23-12-1993,4.703125,4.703125,176000,4.796875,4.75,3.5096275806427
27-12-1993,4.6875,4.6875,1060000,4.890625,4.859375,3.5904417037963867
28-12-1993,4.8125,4.890625,629600,4.921875,4.8125,3.555806875228882
29-12-1993,4.828125,4.828125,648000,4.890625,4.859375,3.5904417037963867
30-12-1993,4.828125,4.84375,270400,4.859375,4.859375,3.5904417037963867
31-12-1993,4.828125,4.859375,112800,4.875,4.875,3.601986885070801
03-01-1994,4.828125,4.875,332000,4.875,4.875,3.601986885070801
04-01-1994,4.84375,4.84375,202400,4.890625,4.890625,3.613530397415161
05-01-1994,4.96875,4.96875,800000,5.25,5.203125,3.8444297313690186
06-01-1994,5.234375,5.234375,999200,5.484375,5.453125,4.02914571762085
07-01-1994,5.40625,5.46875,704800,5.46875,5.4375,4.017601490020752
10-01-1994,5.421875,5.421875,573600,5.640625,5.640625,4.1734395027160645
11-01-1994,5.453125,5.59375,1028800,5.59375,5.5,4.069392681121826
12-01-1994,5.390625,5.5,296000,5.53125,5.40625,4.000025749206543
13-01-1994,5.3125,5.40625,10779200,5.421875,5.3125,3.930664300918579
14-01-1994,5.15625,5.28125,1295200,5.328125,5.15625,3.815053701400757
17-01-1994,5.21875,5.25,1098400,5.3125,5.296875,3.9191014766693115
18-01-1994,5.3125,5.3125,851200,5.4375,5.4375,4.02315092086792
19-01-1994,5.46875,5.46875,1249600,5.609375,5.515625,4.0809550285339355
20-01-1994,5.359375,5.515625,487200,5.5625,5.359375,3.965346097946167
21-01-1994,5.34375,5.390625,354400,5.421875,5.375,3.976907730102539
24-01-1994,5.3125,5.390625,408800,5.40625,5.3125,3.930664300918579
25-01-1994,5.296875,5.3125,284000,5.328125,5.3125,3.930664300918579
26-01-1994,5.265625,5.3125,873600,5.40625,5.375,3.976907730102539
27-01-1994,5.375,5.375,1322400,5.5625,5.546875,4.104073524475098
28-01-1994,5.484375,5.5,303200,5.515625,5.5,4.069392681121826
31-01-1994,5.515625,5.53125,787200,5.671875,5.515625,4.0809550285339355
01-02-1994,5.546875,5.546875,700800,5.625,5.609375,4.150318145751953
02-02-1994,5.578125,5.578125,999200,5.9375,5.765625,4.26592493057251
03-02-1994,5.734375,5.8125,155200,5.8125,5.75,4.254366874694824
04-02-1994,5.703125,5.78125,1171200,5.828125,5.71875,4.231243133544922
07-02-1994,5.609375,5.671875,363200,5.671875,5.625,4.161879539489746
08-02-1994,5.59375,5.625,355200,5.75,5.734375,4.242805004119873
09-02-1994,5.59375,5.734375,272800,5.734375,5.65625,4.184998989105225
10-02-1994,5.5,5.65625,944800,5.65625,5.5,4.069392681121826
11-02-1994,5.5,5.53125,212800,5.71875,5.6875,4.208122730255127
14-02-1994,5.40625,5.6875,335200,5.6875,5.5,4.069392681121826
15-02-1994,5.46875,5.46875,137600,5.53125,5.5,4.069392681121826
16-02-1994,5.375,5.46875,541600,5.484375,5.375,3.976907730102539
17-02-1994,5.34375,5.390625,538400,5.46875,5.34375,3.9537839889526367
18-02-1994,5.328125,5.375,437600,5.390625,5.34375,3.9537839889526367
22-02-1994,5.359375,5.375,83200,5.40625,5.375,3.976907730102539
23-02-1994,5.34375,5.34375,152000,5.4375,5.421875,4.011589527130127
24-02-1994,5.375,5.421875,108800,5.4375,5.4375,4.02315092086792
25-02-1994,5.46875,5.5,848800,5.5625,5.46875,4.046274185180664
28-02-1994,5.375,5.46875,57600,5.46875,5.375,3.976907730102539
01-03-1994,5.34375,5.40625,180000,5.40625,5.375,3.976907730102539
02-03-1994,5.28125,5.34375,310400,5.34375,5.3125,3.930664300918579
03-03-1994,5.296875,5.328125,92800,5.34375,5.3125,3.930664300918579
04-03-1994,5.296875,5.296875,196800,5.40625,5.390625,3.988468885421753
07-03-1994,5.34375,5.40625,268800,5.40625,5.34375,3.9537839889526367
08-03-1994,5.234375,5.3125,516800,5.328125,5.234375,3.8728585243225098
09-03-1994,4.96875,5.203125,609600,5.203125,5.03125,3.722569465637207
10-03-1994,4.921875,5.015625,894400,5.046875,4.9375,3.6532065868377686
11-03-1994,4.921875,4.953125,410400,5.03125,5.015625,3.711008310317993
14-03-1994,5.015625,5.015625,308800,5.1875,5.171875,3.826617479324341
15-03-1994,5.21875,5.21875,446400,5.328125,5.28125,3.907543897628784
16-03-1994,5.25,5.265625,458400,5.296875,5.28125,3.907543897628784
17-03-1994,5.265625,5.265625,423200,5.515625,5.484375,4.057831287384033
18-03-1994,5.5,5.53125,879200,5.6875,5.6875,4.208122730255127
21-03-1994,5.671875,5.71875,813600,5.734375,5.71875,4.231243133544922
22-03-1994,5.6875,5.6875,1078400,5.8125,5.796875,4.289048671722412
23-03-1994,5.625,5.6875,722400,5.6875,5.671875,4.196563720703125
24-03-1994,5.5625,5.59375,674400,5.65625,5.625,4.161879539489746
25-03-1994,5.609375,5.609375,510400,5.671875,5.625,4.161879539489746
28-03-1994,5.4375,5.609375,1590400,5.609375,5.4375,4.02315092086792
29-03-1994,5.25,5.421875,617600,5.421875,5.25,3.884420156478882
30-03-1994,5.109375,5.234375,567200,5.328125,5.3125,3.930664300918579
31-03-1994,5.265625,5.3125,148800,5.34375,5.34375,3.9537839889526367
04-04-1994,5.25,5.3125,445600,5.3125,5.265625,3.895977735519409
05-04-1994,5.234375,5.28125,940000,5.328125,5.25,3.884420156478882
06-04-1994,5.21875,5.3125,240000,5.375,5.375,3.976907730102539
07-04-1994,5.34375,5.375,574400,5.4375,5.34375,3.9537839889526367
08-04-1994,5.3125,5.328125,169600,5.34375,5.34375,3.9537839889526367
11-04-1994,5.265625,5.3125,698400,5.3125,5.296875,3.924609899520874
12-04-1994,5.3125,5.3125,1101600,5.40625,5.375,3.9824976921081543
13-04-1994,5.359375,5.375,604000,5.4375,5.4375,4.028805255889893
14-04-1994,5.359375,5.390625,1280800,5.53125,5.53125,4.098264217376709
15-04-1994,5.46875,5.53125,826400,5.875,5.875,4.352960586547852
18-04-1994,5.6875,5.8125,1331200,5.8125,5.796875,4.295075416564941
19-04-1994,5.734375,5.78125,704000,5.8125,5.734375,4.248767375946045
20-04-1994,5.703125,5.71875,727200,5.71875,5.71875,4.237191677093506
21-04-1994,5.703125,5.703125,480000,5.765625,5.75,4.260344505310059
22-04-1994,5.71875,5.734375,332000,5.796875,5.765625,4.271918773651123
25-04-1994,5.734375,5.765625,498400,5.9375,5.9375,4.399270534515381
26-04-1994,5.9375,5.9375,1096000,5.96875,5.96875,4.422422885894775
28-04-1994,5.9375,5.953125,856800,6.015625,5.953125,4.410846710205078
29-04-1994,5.890625,5.9375,535200,5.9375,5.9375,4.399270534515381
02-05-1994,5.890625,5.90625,652000,5.953125,5.953125,4.410846710205078
03-05-1994,5.859375,5.9375,560800,5.9375,5.875,4.352960586547852
04-05-1994,5.875,5.875,358400,5.9375,5.9375,4.399270534515381
05-05-1994,5.921875,5.96875,66400,5.96875,5.921875,4.387692451477051
06-05-1994,5.921875,5.921875,343200,6.125,6.09375,4.515038013458252
09-05-1994,6.03125,6.109375,453600,6.109375,6.078125,4.503464698791504
10-05-1994,6.09375,6.140625,632800,6.140625,6.09375,4.515038013458252
11-05-1994,6.03125,6.09375,187200,6.109375,6.03125,4.468731880187988
12-05-1994,6.03125,6.046875,806400,6.15625,6.140625,4.549770355224609
13-05-1994,6.109375,6.109375,257600,6.125,6.125,4.53819465637207
16-05-1994,6.109375,6.140625,293600,6.140625,6.109375,4.526614189147949
17-05-1994,5.890625,6.09375,1044000,6.09375,5.953125,4.410846710205078
18-05-1994,5.90625,5.96875,1417600,5.984375,5.96875,4.422422885894775
19-05-1994,5.890625,5.984375,205600,5.984375,5.890625,4.364538669586182
20-05-1994,5.8125,5.90625,309600,5.90625,5.828125,4.318226337432861
23-05-1994,5.765625,5.796875,208800,5.8125,5.765625,4.271918773651123
24-05-1994,5.703125,5.75,287200,5.75,5.703125,4.22561502456665
25-05-1994,5.65625,5.71875,179200,5.71875,5.65625,4.190882682800293
26-05-1994,5.515625,5.59375,840800,5.625,5.546875,4.109842777252197
27-05-1994,5.53125,5.5625,70400,5.59375,5.578125,4.132997035980225
31-05-1994,5.5,5.546875,752800,5.578125,5.5,4.075112342834473
01-06-1994,5.5,5.5,480800,5.546875,5.515625,4.086691379547119
02-06-1994,5.46875,5.5,600000,5.53125,5.46875,4.051962375640869
03-06-1994,5.34375,5.453125,136800,5.453125,5.421875,4.017228603363037
06-06-1994,5.453125,5.5,132800,5.5,5.46875,4.051962375640869
07-06-1994,5.46875,5.46875,863200,5.578125,5.5625,4.1214213371276855
08-06-1994,5.4375,5.5625,276800,5.5625,5.46875,4.051962375640869
09-06-1994,5.375,5.4375,304800,5.4375,5.375,3.9824976921081543
10-06-1994,5.375,5.375,165600,5.578125,5.578125,4.132997035980225
13-06-1994,5.578125,5.578125,736800,5.703125,5.6875,4.2140374183654785
14-06-1994,5.703125,5.703125,476000,5.75,5.75,4.260344505310059
15-06-1994,5.71875,5.75,292000,5.78125,5.734375,4.248767375946045
16-06-1994,5.71875,5.71875,132000,5.78125,5.78125,4.2835001945495605
17-06-1994,5.75,5.75,384000,5.90625,5.90625,4.3761138916015625
20-06-1994,5.75,5.9375,174800,5.9375,5.84375,4.329806804656982
21-06-1994,5.78125,5.78125,166400,5.90625,5.90625,4.3761138916015625
22-06-1994,5.875,5.96875,52800,5.96875,5.90625,4.3761138916015625
23-06-1994,5.75,5.96875,197200,5.96875,5.75,4.260344505310059
24-06-1994,5.59375,5.75,143200,5.75,5.71875,4.237191677093506
27-06-1994,5.625,5.6875,136800,5.75,5.71875,4.237191677093506
28-06-1994,5.59375,5.65625,190800,5.71875,5.71875,4.237191677093506
29-06-1994,5.65625,5.71875,94800,5.75,5.75,4.260344505310059
30-06-1994,5.59375,5.6875,440400,5.75,5.75,4.260344505310059
01-07-1994,5.625,5.75,150400,5.75,5.65625,4.190882682800293
05-07-1994,5.5,5.6875,72400,5.6875,5.5,4.075112342834473
06-07-1994,5.46875,5.5,182800,5.6875,5.6875,4.2140374183654785
07-07-1994,5.59375,5.71875,36000,5.71875,5.59375,4.1445722579956055
08-07-1994,5.5,5.5625,24000,5.59375,5.5,4.075112342834473
11-07-1994,5.5,5.53125,51600,5.5625,5.5625,4.127050399780273
12-07-1994,5.5,5.5625,98800,5.59375,5.5625,4.127050399780273
13-07-1994,5.40625,5.59375,277200,5.65625,5.5,4.080676555633545
14-07-1994,5.4375,5.53125,72800,5.53125,5.4375,4.034307956695557
15-07-1994,5.34375,5.40625,68800,5.40625,5.375,3.9879348278045654
18-07-1994,5.3125,5.4375,261600,5.46875,5.46875,4.057492733001709
19-07-1994,5.375,5.4375,143200,5.4375,5.375,3.9879348278045654
20-07-1994,5.3125,5.40625,31600,5.40625,5.3125,3.941563129425049
21-07-1994,5.1875,5.1875,230800,5.34375,5.34375,3.964747190475464
22-07-1994,5.1875,5.3125,37600,5.3125,5.21875,3.872006416320801
25-07-1994,5.03125,5.25,187200,5.25,5.03125,3.7328908443450928
26-07-1994,4.9375,5.0625,230000,5.0625,4.96875,3.6865203380584717
27-07-1994,4.90625,5.0,551200,5.03125,4.9375,3.663337469100952
28-07-1994,4.9375,4.9375,342800,5.0,5.0,3.7097055912017822
29-07-1994,4.96875,5.0,209600,5.0,4.96875,3.6865203380584717
01-08-1994,4.9375,4.9375,620000,5.0,5.0,3.7097055912017822
02-08-1994,4.9375,4.96875,216400,5.0,5.0,3.7097055912017822
03-08-1994,4.90625,4.96875,430800,5.03125,5.0,3.7097055912017822
04-08-1994,4.9375,4.96875,156400,5.0625,5.0,3.7097055912017822
05-08-1994,4.78125,4.96875,233200,5.0,4.78125,3.547408103942871
08-08-1994,4.8125,4.84375,731600,4.90625,4.84375,3.5937798023223877
09-08-1994,4.78125,4.8125,1479200,5.0,5.0,3.7097055912017822
10-08-1994,5.03125,5.0625,600000,5.125,5.0625,3.756077289581299
11-08-1994,4.96875,5.03125,326800,5.09375,4.96875,3.6865203380584717
12-08-1994,4.9375,4.96875,558400,5.03125,5.0,3.7097055912017822
15-08-1994,4.96875,5.0,71600,5.0625,4.96875,3.6865203380584717
16-08-1994,4.9375,5.0,300800,5.0,4.9375,3.663337469100952
17-08-1994,4.90625,4.9375,148800,5.0,4.96875,3.6865203380584717
18-08-1994,4.90625,4.96875,228400,4.96875,4.9375,3.663337469100952
19-08-1994,4.90625,4.9375,330400,4.953125,4.90625,3.640151023864746
22-08-1994,4.8125,4.9375,137200,4.9375,4.8125,3.570591449737549
23-08-1994,4.78125,4.875,459200,4.90625,4.84375,3.5937798023223877
24-08-1994,4.875,4.875,956000,5.03125,4.9375,3.663337469100952
25-08-1994,4.75,4.96875,773200,4.96875,4.78125,3.547408103942871
26-08-1994,4.65625,4.8125,1071600,4.875,4.8125,3.570591449737549
29-08-1994,4.625,4.875,1677600,4.875,4.71875,3.5010368824005127
30-08-1994,4.6875,4.71875,976800,4.8125,4.8125,3.570591449737549
31-08-1994,4.75,4.8125,1103600,4.90625,4.8125,3.570591449737549
01-09-1994,4.78125,4.78125,967600,4.875,4.84375,3.5937798023223877
02-09-1994,4.84375,4.90625,250400,4.9375,4.9375,3.663337469100952
06-09-1994,4.875,4.90625,397200,5.03125,5.03125,3.7328908443450928
07-09-1994,5.0625,5.0625,1347600,5.25,5.1875,3.848820209503174
08-09-1994,5.125,5.125,1925200,5.4375,5.4375,4.034307956695557
09-09-1994,5.125,5.375,1384800,5.375,5.125,3.802450180053711
12-09-1994,5.125,5.1875,572800,5.21875,5.125,3.802450180053711
13-09-1994,5.125,5.15625,136400,5.1875,5.15625,3.8256330490112305
14-09-1994,5.125,5.125,378800,5.25,5.25,3.8951895236968994
15-09-1994,5.21875,5.25,1040800,5.3125,5.25,3.8951895236968994
16-09-1994,5.25,5.28125,429600,5.375,5.375,3.9879348278045654
19-09-1994,5.25,5.375,374400,5.375,5.25,3.8951895236968994
20-09-1994,5.0,5.1875,248400,5.1875,5.125,3.802450180053711
21-09-1994,4.9375,5.125,303200,5.125,5.0,3.7097055912017822
22-09-1994,5.0,5.0625,68000,5.0625,5.0,3.7097055912017822
23-09-1994,5.0625,5.0625,456000,5.21875,5.1875,3.848820209503174
26-09-1994,5.15625,5.15625,168800,5.25,5.25,3.8951895236968994
27-09-1994,5.15625,5.21875,271200,5.21875,5.1875,3.848820209503174
28-09-1994,5.15625,5.1875,45600,5.21875,5.15625,3.8256330490112305
29-09-1994,5.125,5.1875,135200,5.1875,5.15625,3.8256330490112305
30-09-1994,5.0625,5.1875,63600,5.1875,5.09375,3.7792630195617676
03-10-1994,5.0625,5.09375,100000,5.125,5.0625,3.756077289581299
04-10-1994,4.96875,5.09375,256800,5.09375,4.96875,3.6865203380584717
05-10-1994,4.96875,4.96875,100400,5.03125,5.03125,3.7328908443450928
06-10-1994,5.03125,5.0625,187200,5.125,5.0625,3.756077289581299
07-10-1994,5.09375,5.09375,220000,5.3125,5.28125,3.924191951751709
10-10-1994,5.28125,5.28125,344000,5.375,5.3125,3.94740891456604
11-10-1994,5.3125,5.3125,328800,5.375,5.3125,3.94740891456604
12-10-1994,5.15625,5.25,155600,5.25,5.15625,3.831310510635376
13-10-1994,5.1875,5.21875,285600,5.28125,5.25,3.900972604751587
14-10-1994,5.1875,5.25,151200,5.25,5.25,3.900972604751587
17-10-1994,5.25,5.3125,88000,5.3125,5.25,3.900972604751587
18-10-1994,5.25,5.25,153200,5.375,5.375,3.993849515914917
19-10-1994,5.34375,5.34375,236000,5.4375,5.34375,3.9706337451934814
20-10-1994,5.21875,5.3125,174000,5.34375,5.25,3.900972604751587
21-10-1994,5.1875,5.1875,66800,5.25,5.21875,3.8777499198913574
24-10-1994,5.1875,5.25,72800,5.34375,5.3125,3.94740891456604
25-10-1994,5.1875,5.3125,243200,5.34375,5.25,3.900972604751587
26-10-1994,5.21875,5.25,512800,5.40625,5.40625,4.0170722007751465
27-10-1994,5.375,5.375,1548800,5.625,5.53125,4.109950065612793
28-10-1994,5.46875,5.5,638000,5.6875,5.65625,4.202831268310547
31-10-1994,5.5,5.625,102000,5.625,5.53125,4.109950065612793
01-11-1994,5.46875,5.53125,71200,5.5625,5.5625,4.133172035217285
02-11-1994,5.4375,5.53125,349600,5.53125,5.46875,4.063512325286865
03-11-1994,5.46875,5.5,54000,5.5625,5.53125,4.109950065612793
04-11-1994,5.46875,5.46875,237600,5.53125,5.46875,4.063512325286865
07-11-1994,5.4375,5.5,145600,5.5,5.4375,4.040292263031006
08-11-1994,5.375,5.40625,126800,5.4375,5.40625,4.0170722007751465
09-11-1994,5.4375,5.4375,328400,5.46875,5.4375,4.040292263031006
10-11-1994,5.4375,5.4375,60800,5.46875,5.4375,4.040292263031006
11-11-1994,5.34375,5.4375,80800,5.46875,5.34375,3.9706337451934814
14-11-1994,5.21875,5.3125,125600,5.3125,5.25,3.900972604751587
15-11-1994,5.21875,5.25,166400,5.28125,5.28125,3.924191951751709
16-11-1994,5.15625,5.21875,154800,5.25,5.15625,3.831310510635376
17-11-1994,4.90625,5.09375,990400,5.09375,4.96875,3.6919894218444824
18-11-1994,4.625,4.90625,1564800,4.90625,4.78125,3.5526692867279053
21-11-1994,4.71875,4.8125,789600,4.84375,4.75,3.5294501781463623
22-11-1994,4.625,4.6875,559600,4.71875,4.6875,3.4830105304718018
23-11-1994,4.5,4.71875,952400,4.71875,4.59375,3.4133501052856445
25-11-1994,4.53125,4.5625,45600,4.59375,4.53125,3.366908550262451
28-11-1994,4.46875,4.59375,1295600,4.59375,4.53125,3.366908550262451
29-11-1994,4.46875,4.53125,1277200,4.625,4.59375,3.4133501052856445
30-11-1994,4.53125,4.625,410400,4.625,4.53125,3.366908550262451
01-12-1994,4.5,4.53125,507600,4.65625,4.625,3.436570167541504
02-12-1994,4.625,4.625,588000,4.6875,4.625,3.436570167541504
05-12-1994,4.375,4.59375,1013600,4.65625,4.375,3.2508084774017334
06-12-1994,4.375,4.375,664400,4.4375,4.375,3.2508084774017334
07-12-1994,4.34375,4.375,218400,4.5625,4.5625,3.3901314735412598
08-12-1994,4.53125,4.53125,552800,4.8125,4.6875,3.4830105304718018
09-12-1994,4.5625,4.625,588400,4.625,4.59375,3.4133501052856445
12-12-1994,4.625,4.625,519200,4.6875,4.65625,3.459787607192993
13-12-1994,4.65625,4.65625,408000,4.78125,4.75,3.5294501781463623
14-12-1994,4.78125,4.78125,529200,4.96875,4.9375,3.668769598007202
15-12-1994,4.8125,4.96875,116000,4.96875,4.84375,3.5991098880767822
16-12-1994,4.8125,4.84375,312800,4.875,4.84375,3.5991098880767822
19-12-1994,4.75,4.84375,426800,4.84375,4.8125,3.5758914947509766
20-12-1994,4.625,4.75,305200,4.8125,4.65625,3.459787607192993
21-12-1994,4.59375,4.6875,634400,4.6875,4.625,3.436570167541504
22-12-1994,4.53125,4.65625,284000,4.65625,4.53125,3.366908550262451
23-12-1994,4.53125,4.5625,29600,4.59375,4.5625,3.3901314735412598
27-12-1994,4.4375,4.59375,209600,4.59375,4.5,3.343688488006592
28-12-1994,4.5,4.5,228800,4.59375,4.59375,3.4133501052856445
29-12-1994,4.65625,4.65625,221200,4.8125,4.71875,3.5062294006347656
30-12-1994,4.6875,4.71875,150400,4.78125,4.6875,3.4830105304718018
03-01-1995,4.65625,4.75,129600,4.78125,4.75,3.5294501781463623
04-01-1995,4.6875,4.75,68400,4.8125,4.71875,3.5062294006347656
05-01-1995,4.59375,4.65625,260000,4.6875,4.65625,3.459787607192993
06-01-1995,4.5,4.6875,404800,4.6875,4.5625,3.3901314735412598
09-01-1995,4.46875,4.53125,613600,4.5625,4.46875,3.325934648513794
10-01-1995,4.3125,4.4375,289600,4.4375,4.3125,3.2096452713012695
11-01-1995,4.3125,4.3125,124800,4.40625,4.40625,3.2794203758239746
12-01-1995,4.3125,4.375,374400,4.4375,4.3125,3.2096452713012695
13-01-1995,4.28125,4.3125,66800,4.40625,4.375,3.2561612129211426
16-01-1995,4.28125,4.3125,480800,4.328125,4.3125,3.2096452713012695
17-01-1995,4.3125,4.3125,437600,4.4375,4.40625,3.2794203758239746
18-01-1995,4.40625,4.40625,606000,4.59375,4.5625,3.3957128524780273
19-01-1995,4.5,4.5625,248000,4.5625,4.5,3.3491947650909424
20-01-1995,4.5,4.53125,76400,4.53125,4.53125,3.3724546432495117
23-01-1995,4.375,4.46875,128800,4.5,4.375,3.2561612129211426
24-01-1995,4.375,4.375,345600,4.5625,4.53125,3.3724546432495117
25-01-1995,4.46875,4.53125,129600,4.53125,4.5,3.3491947650909424
26-01-1995,4.5,4.5,145200,4.625,4.625,3.4422271251678467
27-01-1995,4.5,4.5625,512000,4.59375,4.53125,3.3724546432495117
30-01-1995,4.4375,4.53125,193200,4.53125,4.46875,3.325934648513794
31-01-1995,4.4375,4.4375,186400,4.53125,4.4375,3.302678346633911
01-02-1995,4.4375,4.4375,46000,4.5,4.46875,3.325934648513794
02-02-1995,4.4375,4.46875,41600,4.5,4.46875,3.325934648513794
03-02-1995,4.4375,4.5,243600,4.53125,4.5,3.3491947650909424
06-02-1995,4.5625,4.625,651200,4.8125,4.75,3.5352606773376465
07-02-1995,4.6875,4.8125,437200,4.8125,4.6875,3.4887442588806152
08-02-1995,4.71875,4.71875,549600,4.8125,4.75,3.5352606773376465
09-02-1995,4.6875,4.78125,278800,4.78125,4.6875,3.4887442588806152
10-02-1995,4.6875,4.71875,243600,4.78125,4.78125,3.5585215091705322
13-02-1995,4.8125,4.8125,264800,4.90625,4.84375,3.6050360202789307
14-02-1995,4.75,4.84375,137600,4.84375,4.84375,3.6050360202789307
15-02-1995,4.8125,4.84375,277200,4.96875,4.9375,3.6748130321502686
16-02-1995,4.9375,4.9375,477600,5.03125,5.0,3.721327543258667
17-02-1995,5.0,5.0,261200,5.125,5.125,3.8143606185913086
21-02-1995,5.09375,5.125,92400,5.125,5.125,3.8143606185913086
22-02-1995,5.0625,5.09375,214400,5.125,5.09375,3.7911019325256348
23-02-1995,5.0625,5.125,348800,5.15625,5.15625,3.8376195430755615
24-02-1995,5.09375,5.15625,281200,5.15625,5.125,3.8143606185913086
27-02-1995,5.09375,5.125,381600,5.15625,5.15625,3.8376195430755615
28-02-1995,5.15625,5.1875,322400,5.21875,5.21875,3.8841359615325928
01-03-1995,5.15625,5.1875,70800,5.1875,5.15625,3.8376195430755615
02-03-1995,5.15625,5.15625,218800,5.25,5.25,3.90739369392395
03-03-1995,5.21875,5.25,259600,5.28125,5.25,3.90739369392395
06-03-1995,5.15625,5.25,236400,5.25,5.21875,3.8841359615325928
07-03-1995,5.125,5.25,405200,5.25,5.125,3.8143606185913086
08-03-1995,5.125,5.15625,442800,5.28125,5.21875,3.8841359615325928
09-03-1995,5.1875,5.25,179600,5.28125,5.28125,3.9306514263153076
10-03-1995,5.15625,5.25,170400,5.25,5.15625,3.8376195430755615
13-03-1995,5.15625,5.1875,100800,5.21875,5.1875,3.8608758449554443
14-03-1995,5.1875,5.1875,101600,5.25,5.25,3.90739369392395
15-03-1995,5.25,5.25,317200,5.34375,5.3125,3.9539072513580322
16-03-1995,5.28125,5.28125,635600,5.5,5.4375,4.046942234039307
17-03-1995,5.3125,5.40625,492800,5.5,5.4375,4.046942234039307
20-03-1995,5.28125,5.40625,426800,5.5,5.34375,3.977169990539551
21-03-1995,5.25,5.3125,159600,5.3125,5.25,3.90739369392395
22-03-1995,5.28125,5.3125,349200,5.375,5.3125,3.9539072513580322
23-03-1995,5.3125,5.34375,279600,5.4375,5.40625,4.023684501647949
24-03-1995,5.28125,5.40625,696000,5.40625,5.3125,3.9539072513580322
27-03-1995,5.3125,5.34375,314400,5.5,5.5,4.0934576988220215
28-03-1995,5.5,5.5,268800,5.5625,5.5625,4.1399760246276855
29-03-1995,5.5625,5.5625,458000,5.6875,5.625,4.186494827270508
30-03-1995,5.65625,5.65625,414400,5.875,5.875,4.372559547424316
31-03-1995,5.90625,5.90625,1336800,6.21875,6.15625,4.581884860992432
03-04-1995,5.96875,6.15625,1253600,6.15625,5.96875,4.442334175109863
04-04-1995,5.84375,5.96875,666000,5.96875,5.875,4.372559547424316
05-04-1995,5.84375,5.875,1044800,5.96875,5.90625,4.395817756652832
06-04-1995,5.71875,5.875,704000,5.875,5.71875,4.2562689781188965
07-04-1995,5.625,5.6875,227600,5.75,5.625,4.19199275970459
10-04-1995,5.59375,5.59375,525600,5.75,5.75,4.285144805908203
11-04-1995,5.6875,5.78125,668400,5.78125,5.75,4.285144805908203
12-04-1995,5.71875,5.75,110400,5.78125,5.78125,4.308433532714844
13-04-1995,5.75,5.8125,191600,5.875,5.75,4.285144805908203
17-04-1995,5.75,5.78125,133200,5.8125,5.75,4.285144805908203
18-04-1995,5.5625,5.75,805200,5.75,5.5625,4.145412921905518
19-04-1995,5.53125,5.59375,182400,5.625,5.625,4.19199275970459
20-04-1995,5.625,5.625,356000,5.78125,5.78125,4.308433532714844
21-04-1995,5.8125,5.8125,1894000,6.1875,6.09375,4.541323184967041
24-04-1995,5.9375,6.125,940800,6.1875,5.9375,4.424878120422363
25-04-1995,5.84375,5.875,103200,5.90625,5.84375,4.355014324188232
26-04-1995,5.71875,5.875,144000,5.875,5.78125,4.308433532714844
27-04-1995,5.65625,5.78125,390800,5.78125,5.65625,4.215278148651123
28-04-1995,5.6875,5.71875,266400,5.71875,5.71875,4.26185941696167
01-05-1995,5.71875,5.75,529200,5.78125,5.75,4.285144805908203
02-05-1995,5.6875,5.75,406400,5.75,5.75,4.285144805908203
03-05-1995,5.75,5.75,199600,5.8125,5.75,4.285144805908203
04-05-1995,5.6875,5.75,215200,5.75,5.71875,4.26185941696167
05-05-1995,5.65625,5.6875,289200,5.75,5.65625,4.215278148651123
08-05-1995,5.625,5.65625,224000,5.6875,5.65625,4.215278148651123
09-05-1995,5.625,5.65625,509200,5.8125,5.8125,4.331724166870117
10-05-1995,5.78125,5.78125,706400,5.9375,5.9375,4.424878120422363
11-05-1995,5.78125,5.90625,222000,5.90625,5.8125,4.331724166870117
12-05-1995,5.75,5.8125,38800,5.8125,5.78125,4.308433532714844
15-05-1995,5.78125,5.8125,279600,5.875,5.875,4.378303050994873
16-05-1995,5.84375,5.90625,43200,5.9375,5.84375,4.355014324188232
17-05-1995,5.78125,5.84375,295600,5.84375,5.8125,4.331724166870117
18-05-1995,5.65625,5.8125,107600,5.8125,5.71875,4.26185941696167
19-05-1995,5.71875,5.71875,130800,5.75,5.75,4.285144805908203
22-05-1995,5.6875,5.75,64000,5.75,5.6875,4.2385711669921875
23-05-1995,5.71875,5.71875,340800,5.90625,5.875,4.378303050994873
24-05-1995,5.84375,5.875,449200,6.09375,6.09375,4.541323184967041
25-05-1995,6.0,6.03125,798400,6.125,6.0625,4.518033027648926
26-05-1995,5.9375,6.0625,177600,6.0625,5.96875,4.4481682777404785
30-05-1995,5.9375,5.9375,303600,6.03125,6.03125,4.494744777679443
31-05-1995,6.0,6.0625,254800,6.0625,6.0625,4.518033027648926
01-06-1995,6.03125,6.0625,26000,6.09375,6.03125,4.494744777679443
02-06-1995,5.9375,6.0625,201600,6.09375,5.96875,4.4481682777404785
05-06-1995,5.96875,6.0,137600,6.0,6.0,4.471458911895752
06-06-1995,5.875,6.0,53200,6.0,5.90625,4.401591777801514
07-06-1995,5.8125,5.9375,307600,5.9375,5.8125,4.331724166870117
08-06-1995,5.75,5.8125,242000,5.8125,5.78125,4.308433532714844
09-06-1995,5.75,5.78125,652000,5.8125,5.78125,4.308433532714844
12-06-1995,5.71875,5.78125,188000,5.78125,5.75,4.285144805908203
13-06-1995,5.6875,5.6875,119200,5.71875,5.71875,4.26185941696167
14-06-1995,5.71875,5.78125,300400,5.78125,5.78125,4.308433532714844
15-06-1995,5.71875,5.75,186800,5.8125,5.8125,4.331724166870117
16-06-1995,5.6875,5.8125,190000,5.8125,5.6875,4.2385711669921875
19-06-1995,5.59375,5.65625,399600,5.71875,5.6875,4.2385711669921875
20-06-1995,5.34375,5.71875,788000,5.71875,5.34375,3.9823923110961914
21-06-1995,5.1875,5.34375,494400,5.34375,5.21875,3.88923716545105
22-06-1995,5.0625,5.21875,762800,5.21875,5.15625,3.8426601886749268
23-06-1995,5.1875,5.1875,2558400,5.34375,5.3125,3.959099292755127
26-06-1995,5.25,5.28125,352400,5.375,5.34375,3.9823923110961914
27-06-1995,5.3125,5.3125,496800,5.4375,5.40625,4.028968334197998
28-06-1995,5.21875,5.375,1011200,5.375,5.25,3.912525177001953
29-06-1995,5.1875,5.25,250400,5.25,5.1875,3.8659472465515137
30-06-1995,5.21875,5.21875,653600,5.4375,5.4375,4.052257061004639
03-07-1995,5.34375,5.40625,317600,5.46875,5.46875,4.0755486488342285
05-07-1995,5.28125,5.4375,124000,5.4375,5.28125,3.9358129501342773
06-07-1995,5.21875,5.25,680800,5.28125,5.25,3.912525177001953
07-07-1995,5.21875,5.25,272400,5.25,5.25,3.912525177001953
10-07-1995,5.125,5.28125,638400,5.3125,5.125,3.8193697929382324
11-07-1995,5.0,5.125,582000,5.28125,5.15625,3.8426601886749268
12-07-1995,5.1875,5.1875,335600,5.28125,5.25,3.9182236194610596
13-07-1995,5.21875,5.375,817600,5.4375,5.21875,3.894902467727661
14-07-1995,5.15625,5.25,286000,5.28125,5.1875,3.8715786933898926
17-07-1995,5.15625,5.1875,460400,5.25,5.21875,3.894902467727661
18-07-1995,5.21875,5.21875,77600,5.28125,5.28125,3.941545248031616
19-07-1995,5.1875,5.25,132000,5.28125,5.25,3.9182236194610596
20-07-1995,5.25,5.25,379200,5.375,5.28125,3.941545248031616
21-07-1995,5.21875,5.28125,248000,5.375,5.34375,3.988192558288574
24-07-1995,5.3125,5.3125,176400,5.40625,5.375,4.0115132331848145
25-07-1995,5.40625,5.40625,344000,5.46875,5.4375,4.058159828186035
26-07-1995,5.34375,5.40625,244000,5.40625,5.34375,3.988192558288574
27-07-1995,5.21875,5.28125,758000,5.375,5.28125,3.941545248031616
28-07-1995,5.25,5.3125,111600,5.375,5.375,4.0115132331848145
31-07-1995,5.34375,5.34375,217200,5.4375,5.40625,4.0348381996154785
01-08-1995,5.1875,5.375,532800,5.375,5.21875,3.894902467727661
02-08-1995,5.1875,5.21875,302000,5.25,5.21875,3.894902467727661
03-08-1995,5.125,5.1875,552400,5.34375,5.34375,3.988192558288574
04-08-1995,5.28125,5.34375,558800,5.34375,5.34375,3.988192558288574
07-08-1995,5.34375,5.375,101600,5.40625,5.375,4.0115132331848145
08-08-1995,5.34375,5.40625,305200,5.4375,5.34375,3.988192558288574
09-08-1995,5.3125,5.40625,703200,5.40625,5.3125,3.9648654460906982
10-08-1995,5.1875,5.3125,166000,5.34375,5.1875,3.8715786933898926
11-08-1995,5.15625,5.15625,349600,5.3125,5.3125,3.9648654460906982
14-08-1995,5.25,5.34375,134400,5.34375,5.25,3.9182236194610596
15-08-1995,5.25,5.3125,108800,5.34375,5.25,3.9182236194610596
16-08-1995,5.125,5.21875,242000,5.21875,5.21875,3.894902467727661
17-08-1995,5.1875,5.1875,371600,5.3125,5.28125,3.941545248031616
18-08-1995,5.28125,5.28125,542400,5.5,5.40625,4.0348381996154785
21-08-1995,5.40625,5.46875,575600,5.5,5.40625,4.0348381996154785
22-08-1995,5.4375,5.4375,362400,5.53125,5.53125,4.128129959106445
23-08-1995,5.5625,5.5625,317600,5.71875,5.625,4.1980977058410645
24-08-1995,5.46875,5.59375,2007200,5.625,5.5,4.104804039001465
25-08-1995,5.5,5.5,160000,5.53125,5.5,4.104804039001465
28-08-1995,5.46875,5.5,280000,5.5625,5.53125,4.128129959106445
29-08-1995,5.5,5.53125,56400,5.5625,5.53125,4.128129959106445
30-08-1995,5.625,5.625,290400,5.65625,5.65625,4.221418380737305
31-08-1995,5.6875,5.6875,116800,5.84375,5.8125,4.338033199310303
01-09-1995,5.84375,5.84375,431200,5.96875,5.96875,4.454646110534668
05-09-1995,5.90625,5.96875,545200,6.03125,6.03125,4.501290798187256
06-09-1995,5.90625,5.96875,415600,6.0,6.0,4.47797155380249
07-09-1995,5.78125,6.0,284000,6.03125,6.03125,4.501290798187256
08-09-1995,5.9375,6.03125,248000,6.09375,5.9375,4.431323051452637
11-09-1995,5.9375,5.96875,230800,6.03125,6.03125,4.501290798187256
12-09-1995,5.90625,6.0,312400,6.15625,6.15625,4.594584941864014
13-09-1995,6.03125,6.125,547600,6.125,6.0625,4.524614334106445
14-09-1995,5.9375,6.03125,348000,6.09375,6.09375,4.547937870025635
15-09-1995,6.0625,6.0625,221200,6.1875,6.1875,4.617907524108887
18-09-1995,6.125,6.15625,490000,6.34375,6.21875,4.641226768493652
19-09-1995,6.0,6.15625,504800,6.1875,6.15625,4.594584941864014
20-09-1995,6.0,6.125,284800,6.125,6.0,4.47797155380249
21-09-1995,5.9375,6.0625,451200,6.0625,6.03125,4.501290798187256
22-09-1995,5.78125,6.03125,143600,6.03125,5.875,4.384680271148682
25-09-1995,5.75,5.84375,183200,5.84375,5.78125,4.314708709716797
26-09-1995,5.65625,5.78125,232000,5.78125,5.65625,4.221418380737305
27-09-1995,5.625,5.6875,229200,5.75,5.75,4.29138708114624
28-09-1995,5.625,5.8125,263600,5.96875,5.625,4.1980977058410645
29-09-1995,5.4375,5.59375,635600,5.59375,5.4375,4.058159828186035
02-10-1995,5.4375,5.46875,548400,5.6875,5.59375,4.174774169921875
03-10-1995,5.5625,5.5625,304400,5.6875,5.65625,4.221418380737305
04-10-1995,5.5625,5.625,230800,5.65625,5.65625,4.221418380737305
05-10-1995,5.5,5.625,76800,5.625,5.53125,4.128129959106445
06-10-1995,5.5,5.5,259200,5.5625,5.5625,4.1514506340026855
09-10-1995,5.5,5.59375,48000,5.59375,5.5,4.104804039001465
10-10-1995,5.375,5.46875,109600,5.46875,5.375,4.0115132331848145
11-10-1995,5.34375,5.375,166000,5.40625,5.34375,3.988192558288574
12-10-1995,5.34375,5.375,620000,5.5625,5.5,4.110575199127197
13-10-1995,5.5,5.5,227200,5.59375,5.53125,4.133930683135986
16-10-1995,5.40625,5.53125,188800,5.53125,5.46875,4.087220191955566
17-10-1995,5.40625,5.4375,398400,5.5,5.5,4.110575199127197
18-10-1995,5.25,5.4375,1966400,5.46875,5.25,3.923732042312622
19-10-1995,5.21875,5.21875,1503600,5.3125,5.21875,3.9003748893737793
20-10-1995,5.125,5.25,333600,5.25,5.125,3.8303112983703613
23-10-1995,5.0,5.15625,608000,5.15625,5.0,3.7368884086608887
24-10-1995,4.90625,5.0,1186800,5.0,4.9375,3.6901776790618896
25-10-1995,4.71875,4.9375,658400,4.9375,4.71875,3.5266871452331543
26-10-1995,4.6875,4.75,439600,4.8125,4.71875,3.5266871452331543
27-10-1995,4.71875,4.71875,352000,4.875,4.875,3.6434648036956787
30-10-1995,4.9375,4.9375,646800,5.0,4.96875,3.713531970977783
31-10-1995,4.96875,5.0,314800,5.03125,5.0,3.7368884086608887
01-11-1995,5.0,5.0,390800,5.03125,5.0,3.7368884086608887
02-11-1995,4.9375,4.96875,42800,5.0,4.9375,3.6901776790618896
03-11-1995,4.875,4.875,165600,4.96875,4.96875,3.713531970977783
06-11-1995,4.90625,4.96875,63600,4.96875,4.90625,3.666820764541626
07-11-1995,4.9375,4.9375,476400,5.03125,5.03125,3.7602429389953613
08-11-1995,4.875,4.96875,907200,5.0,5.0,3.7368884086608887
09-11-1995,5.03125,5.09375,1176400,5.15625,5.03125,3.7602429389953613
10-11-1995,4.90625,5.03125,550000,5.03125,4.90625,3.666820764541626
13-11-1995,4.9375,4.96875,446800,5.09375,5.09375,3.8069519996643066
14-11-1995,4.9375,5.03125,1045600,5.0625,4.96875,3.713531970977783
15-11-1995,4.96875,4.96875,228000,5.03125,5.0,3.7368884086608887
16-11-1995,5.03125,5.03125,1046400,5.4375,5.375,4.017154216766357
17-11-1995,5.375,5.40625,906800,5.40625,5.40625,4.040509223937988
20-11-1995,5.1875,5.40625,585600,5.40625,5.1875,3.8770217895507812
21-11-1995,5.1875,5.21875,363200,5.375,5.34375,3.9937984943389893
22-11-1995,5.34375,5.375,432800,5.40625,5.40625,4.040509223937988
24-11-1995,5.3125,5.40625,229200,5.40625,5.3125,3.970442771911621
27-11-1995,5.125,5.21875,851200,5.21875,5.1875,3.8770217895507812
28-11-1995,5.1875,5.1875,315200,5.28125,5.25,3.923732042312622
29-11-1995,5.21875,5.28125,28800,5.28125,5.21875,3.9003748893737793
30-11-1995,5.1875,5.28125,311200,5.28125,5.25,3.923732042312622
01-12-1995,5.25,5.25,308400,5.34375,5.28125,3.947087287902832
04-12-1995,5.125,5.3125,1056000,5.3125,5.3125,3.970442771911621
05-12-1995,5.3125,5.3125,461200,5.375,5.375,4.017154216766357
06-12-1995,5.40625,5.40625,685200,5.4375,5.4375,4.063862323760986
07-12-1995,5.4375,5.4375,720400,5.5,5.5,4.110575199127197
08-12-1995,5.4375,5.46875,18838800,5.65625,5.65625,4.227352142333984
11-12-1995,5.71875,5.8125,5631200,5.875,5.875,4.390841484069824
12-12-1995,5.8125,5.875,2874000,5.90625,5.875,4.390841484069824
13-12-1995,5.84375,5.875,3176800,6.09375,6.0,4.484263896942139
14-12-1995,5.90625,6.03125,2280000,6.09375,5.90625,4.414198875427246
15-12-1995,5.875,6.1875,1721200,6.21875,6.0,4.484263896942139
18-12-1995,5.8125,5.9375,974000,5.96875,5.96875,4.460908889770508
19-12-1995,5.875,5.96875,876000,6.0625,6.0625,4.530973434448242
20-12-1995,6.03125,6.0625,2001200,6.21875,6.03125,4.507619857788086
21-12-1995,6.0,6.03125,1896800,6.125,6.03125,4.507619857788086
22-12-1995,5.9375,6.09375,1115600,6.15625,6.03125,4.507619857788086
26-12-1995,6.03125,6.09375,490800,6.09375,6.03125,4.507619857788086
27-12-1995,5.9375,6.03125,582000,6.03125,5.9375,4.437553405761719
28-12-1995,5.90625,5.90625,1150800,6.15625,6.15625,4.601041793823242
29-12-1995,5.9375,6.1875,677200,6.1875,6.0,4.484263896942139
02-01-1996,6.03125,6.0625,579600,6.125,6.09375,4.554329872131348
03-01-1996,5.875,6.125,1148000,6.125,5.96875,4.460908889770508
04-01-1996,5.9375,5.96875,1644000,6.0625,5.96875,4.460908889770508
05-01-1996,5.9375,5.9375,680800,6.09375,6.0625,4.530973434448242
08-01-1996,6.0625,6.0625,779200,6.125,6.125,4.577686786651611
09-01-1996,5.9375,6.15625,948400,6.15625,6.0,4.484263896942139
10-01-1996,5.84375,6.0,516400,6.03125,5.96875,4.460908889770508
11-01-1996,5.6875,5.8125,1618400,5.8125,5.78125,4.326214790344238
12-01-1996,5.75,5.75,555200,5.8125,5.8125,4.349596977233887
15-01-1996,5.75,5.875,1159200,5.875,5.75,4.30282735824585
16-01-1996,5.71875,5.75,1683200,5.8125,5.75,4.30282735824585
17-01-1996,5.59375,5.75,2281600,5.78125,5.75,4.30282735824585
18-01-1996,5.71875,5.75,504000,5.78125,5.78125,4.326214790344238
19-01-1996,5.75,5.8125,803200,5.84375,5.75,4.30282735824585
22-01-1996,5.78125,5.78125,545600,5.875,5.875,4.39636754989624
23-01-1996,5.78125,5.84375,426400,5.90625,5.78125,4.326214790344238
24-01-1996,5.78125,5.8125,539600,5.96875,5.875,4.39636754989624
25-01-1996,5.875,5.875,693600,5.96875,5.9375,4.443135738372803
26-01-1996,5.875,5.90625,1880000,5.90625,5.875,4.39636754989624
29-01-1996,5.875,5.90625,1636800,6.0,6.0,4.489908695220947
30-01-1996,5.96875,6.0,970800,6.03125,6.03125,4.513290882110596
31-01-1996,5.96875,6.03125,650000,6.125,6.09375,4.560060977935791
01-02-1996,6.125,6.125,2182400,6.3125,6.21875,4.653600692749023
02-02-1996,6.125,6.15625,1204000,6.25,6.15625,4.6068315505981445
05-02-1996,6.0625,6.09375,923200,6.15625,6.09375,4.560060977935791
06-02-1996,6.03125,6.09375,938400,6.125,6.03125,4.513290882110596
07-02-1996,6.0625,6.09375,838800,6.15625,6.125,4.5834455490112305
08-02-1996,6.125,6.125,705600,6.25,6.1875,4.630214691162109
09-02-1996,6.125,6.1875,1770400,6.28125,6.25,4.676986217498779
12-02-1996,6.15625,6.25,4923200,6.65625,6.53125,4.887451648712158
13-02-1996,6.25,6.59375,3442800,6.59375,6.34375,4.747140884399414
14-02-1996,6.375,6.375,1570000,6.625,6.5625,4.91083288192749
15-02-1996,6.53125,6.53125,1637600,6.9375,6.90625,5.168069362640381
16-02-1996,6.65625,7.125,2182000,7.125,6.75,5.051145553588867
20-02-1996,6.5625,6.625,421200,6.71875,6.625,4.957603931427002
21-02-1996,6.53125,6.5625,1553600,6.71875,6.71875,5.027760028839111
22-02-1996,6.59375,6.6875,1300800,6.75,6.6875,5.004373073577881
23-02-1996,6.5625,6.65625,660000,6.75,6.71875,5.027760028839111
26-02-1996,6.5625,6.625,556400,6.65625,6.59375,4.934220790863037
27-02-1996,6.5,6.53125,532800,6.625,6.59375,4.934220790863037
28-02-1996,6.40625,6.59375,2225600,6.71875,6.40625,4.793908596038818
29-02-1996,6.1875,6.4375,956000,6.4375,6.25,4.676986217498779
01-03-1996,6.25,6.25,402800,6.34375,6.25,4.676986217498779
04-03-1996,6.1875,6.25,809200,6.34375,6.3125,4.723755359649658
05-03-1996,6.15625,6.25,574000,6.25,6.25,4.676986217498779
06-03-1996,6.1875,6.21875,830000,6.40625,6.40625,4.793908596038818
07-03-1996,6.3125,6.375,1132000,6.40625,6.375,4.7705254554748535
08-03-1996,6.1875,6.1875,278400,6.28125,6.21875,4.653600692749023
11-03-1996,6.09375,6.1875,1366400,6.1875,6.15625,4.6068315505981445
12-03-1996,6.09375,6.125,1108400,6.15625,6.125,4.5834455490112305
13-03-1996,6.125,6.125,1038800,6.1875,6.1875,4.630214691162109
14-03-1996,6.25,6.25,2724800,6.40625,6.3125,4.723755359649658
15-03-1996,6.0,6.25,1051600,6.25,6.0625,4.536674976348877
18-03-1996,6.0625,6.09375,4547200,6.375,6.375,4.7705254554748535
19-03-1996,6.34375,6.375,473600,6.4375,6.34375,4.747140884399414
20-03-1996,6.1875,6.375,223600,6.375,6.1875,4.630214691162109
21-03-1996,6.125,6.1875,936800,6.28125,6.125,4.5834455490112305
22-03-1996,6.09375,6.15625,1019600,6.1875,6.09375,4.560060977935791
25-03-1996,6.0625,6.0625,907200,6.28125,6.28125,4.700371265411377
26-03-1996,6.25,6.28125,216800,6.3125,6.3125,4.723755359649658
27-03-1996,6.40625,6.5,1842000,6.59375,6.53125,4.887451648712158
28-03-1996,6.53125,6.53125,1270000,6.65625,6.65625,4.980987548828125
29-03-1996,6.5625,6.59375,1343600,6.625,6.59375,4.934220790863037
01-04-1996,6.5625,6.59375,752800,6.6875,6.6875,5.004373073577881
02-04-1996,6.65625,6.71875,1116400,6.875,6.84375,5.121298313140869
03-04-1996,6.71875,6.78125,1519600,6.96875,6.9375,5.1914544105529785
04-04-1996,6.75,6.9375,796800,6.9375,6.875,5.144682884216309
08-04-1996,6.625,6.84375,1262800,6.84375,6.8125,5.09791374206543
09-04-1996,6.8125,6.8125,923200,6.90625,6.875,5.144682884216309
10-04-1996,6.78125,6.8125,1358000,6.96875,6.9375,5.1914544105529785
11-04-1996,6.84375,6.875,932000,6.9375,6.875,5.1502509117126465
12-04-1996,6.59375,6.875,1120000,6.875,6.65625,4.986378192901611
15-04-1996,6.5625,6.59375,948000,6.78125,6.75,5.05661153793335
16-04-1996,6.6875,6.78125,846000,6.78125,6.75,5.05661153793335
17-04-1996,6.65625,6.75,1494800,6.75,6.6875,5.009789943695068
18-04-1996,6.5,6.6875,1113200,6.6875,6.53125,4.8927388191223145
19-04-1996,6.5,6.5,884400,6.6875,6.65625,4.986378192901611
22-04-1996,6.65625,6.65625,2457600,6.90625,6.8125,5.103430271148682
23-04-1996,6.78125,6.9375,1053200,7.0,6.90625,5.173661708831787
24-04-1996,6.90625,6.90625,1069200,7.15625,7.03125,5.267302989959717
25-04-1996,6.9375,6.96875,536800,7.0,6.9375,5.197072982788086
26-04-1996,6.78125,6.875,486400,6.9375,6.78125,5.080021381378174
29-04-1996,6.71875,6.71875,705200,6.875,6.78125,5.080021381378174
30-04-1996,6.59375,6.8125,779600,6.875,6.625,4.962970733642578
01-05-1996,6.5,6.625,808400,6.75,6.5,4.869329452514648
02-05-1996,6.46875,6.5625,373600,6.59375,6.5625,4.916150093078613
03-05-1996,6.53125,6.625,680000,6.625,6.625,4.962970733642578
06-05-1996,6.5625,6.59375,504400,6.65625,6.5625,4.916150093078613
07-05-1996,6.125,6.625,1395600,6.65625,6.21875,4.6586384773254395
08-05-1996,6.1875,6.25,620400,6.34375,6.25,4.682047367095947
09-05-1996,6.25,6.25,332000,6.375,6.375,4.7756876945495605
10-05-1996,6.25,6.375,818400,6.40625,6.3125,4.728866100311279
13-05-1996,6.21875,6.25,796000,6.3125,6.25,4.682047367095947
14-05-1996,6.15625,6.25,1208800,6.28125,6.15625,4.611816883087158
15-05-1996,6.09375,6.1875,2372400,6.3125,6.3125,4.728866100311279
16-05-1996,6.25,6.34375,379600,6.34375,6.28125,4.705458164215088
17-05-1996,6.1875,6.25,1017600,6.28125,6.25,4.682047367095947
20-05-1996,6.25,6.25,425600,6.375,6.34375,4.752275466918945
21-05-1996,6.3125,6.3125,2660400,6.46875,6.4375,4.822508811950684
22-05-1996,6.4375,6.4375,552000,6.5,6.5,4.869329452514648
23-05-1996,6.53125,6.5625,1154800,6.75,6.5625,4.916150093078613
24-05-1996,6.4375,6.5,1701200,6.53125,6.5,4.869329452514648
28-05-1996,6.359375,6.53125,554000,6.53125,6.4375,4.822508811950684
29-05-1996,6.3125,6.40625,613600,6.40625,6.375,4.7756876945495605
30-05-1996,6.25,6.375,604000,6.375,6.3125,4.728866100311279
31-05-1996,6.25,6.34375,493200,6.375,6.3125,4.728866100311279
03-06-1996,6.28125,6.3125,211200,6.3125,6.3125,4.728866100311279
04-06-1996,6.375,6.40625,654800,6.46875,6.375,4.7756876945495605
05-06-1996,6.40625,6.4375,679600,6.46875,6.4375,4.822508811950684
06-06-1996,6.25,6.4375,278800,6.4375,6.28125,4.705458164215088
07-06-1996,6.15625,6.21875,702800,6.34375,6.34375,4.752275466918945
10-06-1996,6.3125,6.34375,241200,6.34375,6.3125,4.728866100311279
11-06-1996,6.28125,6.3125,761600,6.375,6.3125,4.728866100311279
12-06-1996,6.25,6.3125,1385200,6.3125,6.28125,4.705458164215088
13-06-1996,6.09375,6.28125,985600,6.28125,6.1875,4.635226726531982
14-06-1996,6.15625,6.1875,1093200,6.21875,6.15625,4.611816883087158
17-06-1996,6.0625,6.09375,586400,6.125,6.0625,4.541587829589844
18-06-1996,5.96875,6.0,1450000,6.125,5.96875,4.4713568687438965
19-06-1996,6.03125,6.03125,1416800,6.15625,6.0625,4.541587829589844
20-06-1996,6.0625,6.09375,1258400,6.125,6.09375,4.564996719360352
21-06-1996,6.0,6.09375,650800,6.09375,6.0,4.494766712188721
24-06-1996,5.96875,6.03125,948000,6.0625,6.0,4.494766712188721
25-06-1996,5.96875,6.03125,2754000,6.25,6.15625,4.611816883087158
26-06-1996,6.21875,6.21875,5256400,6.625,6.625,4.962970733642578
27-06-1996,6.53125,6.59375,4884000,6.75,6.75,5.05661153793335
28-06-1996,6.78125,6.8125,5409200,6.96875,6.96875,5.220484256744385
01-07-1996,6.90625,6.96875,3778800,7.28125,7.28125,5.454587936401367
02-07-1996,7.125,7.15625,2342000,7.25,7.21875,5.40776252746582
03-07-1996,7.125,7.125,1392000,7.21875,7.21875,5.40776252746582
05-07-1996,7.125,7.21875,753600,7.3125,7.28125,5.454587936401367
08-07-1996,7.1875,7.25,924800,7.3125,7.25,5.4311747550964355
09-07-1996,7.25,7.25,2440800,7.5625,7.5,5.618455410003662
10-07-1996,7.46875,7.5,3225600,7.65625,7.5625,5.66527795791626
11-07-1996,7.125,7.46875,3954400,7.59375,7.1875,5.3897013664245605
12-07-1996,7.125,7.15625,1191200,7.21875,7.15625,5.366265296936035
15-07-1996,7.09375,7.125,1718400,7.34375,7.125,5.342832565307617
16-07-1996,6.5625,7.0625,1854400,7.09375,6.65625,4.991329669952393
17-07-1996,6.6875,6.6875,2270000,6.96875,6.6875,5.014763832092285
18-07-1996,6.65625,6.75,990400,6.8125,6.71875,5.038196563720703
19-07-1996,6.65625,6.6875,1322800,6.71875,6.6875,5.014763832092285
22-07-1996,6.5625,6.6875,1101600,6.6875,6.59375,4.944462299346924
23-07-1996,6.53125,6.625,2303200,6.8125,6.8125,5.108497619628906
24-07-1996,6.625,6.75,327600,6.75,6.625,4.967897891998291
25-07-1996,6.375,6.625,762800,6.78125,6.375,4.780429363250732
26-07-1996,6.40625,6.40625,462800,6.5625,6.53125,4.897597789764404
29-07-1996,6.4375,6.5,676800,6.53125,6.5,4.8741631507873535
30-07-1996,6.25,6.46875,1988800,6.53125,6.3125,4.733560085296631
31-07-1996,6.125,6.3125,1733600,6.3125,6.25,4.686696529388428
01-08-1996,6.25,6.25,1422800,6.375,6.3125,4.733560085296631
02-08-1996,6.3125,6.3125,1042800,6.46875,6.46875,4.850727558135986
05-08-1996,6.34375,6.46875,503200,6.59375,6.59375,4.944462299346924
06-08-1996,6.5,6.59375,495200,6.65625,6.65625,4.991329669952393
07-08-1996,6.75,6.75,1542800,6.84375,6.84375,5.131931781768799
08-08-1996,6.75,6.84375,767600,6.875,6.84375,5.131931781768799
09-08-1996,6.71875,6.875,634400,6.875,6.71875,5.038196563720703
12-08-1996,6.625,6.75,167600,6.75,6.625,4.967897891998291
13-08-1996,6.625,6.65625,389600,6.6875,6.625,4.967897891998291
14-08-1996,6.625,6.625,333200,6.65625,6.65625,4.991329669952393
15-08-1996,6.625,6.625,331600,6.75,6.75,5.061633110046387
16-08-1996,6.625,6.6875,329600,6.71875,6.71875,5.038196563720703
19-08-1996,6.625,6.65625,339200,6.78125,6.78125,5.08506441116333
20-08-1996,6.6875,6.8125,928800,6.8125,6.75,5.061633110046387
21-08-1996,6.59375,6.71875,837600,6.71875,6.65625,4.991329669952393
22-08-1996,6.59375,6.65625,433200,6.6875,6.65625,4.991329669952393
23-08-1996,6.5625,6.59375,228800,6.65625,6.625,4.967897891998291
26-08-1996,6.5625,6.625,488000,6.65625,6.65625,4.991329669952393
27-08-1996,6.5,6.625,669600,6.625,6.5,4.8741631507873535
28-08-1996,6.46875,6.5,392800,6.5,6.46875,4.850727558135986
29-08-1996,6.4375,6.46875,499200,6.5,6.46875,4.850727558135986
30-08-1996,6.375,6.4375,160800,6.46875,6.46875,4.850727558135986
03-09-1996,6.5,6.5,1298800,6.59375,6.5625,4.9210309982299805
04-09-1996,6.40625,6.53125,356400,6.53125,6.46875,4.850727558135986
05-09-1996,6.375,6.4375,382800,6.5,6.4375,4.827296733856201
06-09-1996,6.3125,6.4375,2431600,6.59375,6.46875,4.850727558135986
09-09-1996,6.40625,6.46875,501200,6.53125,6.5,4.8741631507873535
10-09-1996,6.46875,6.5,488400,6.53125,6.46875,4.850727558135986
11-09-1996,6.46875,6.46875,1305600,6.65625,6.5625,4.9210309982299805
12-09-1996,6.28125,6.53125,1240800,6.53125,6.3125,4.733560085296631
13-09-1996,6.125,6.3125,1250400,6.3125,6.125,4.592962265014648
16-09-1996,6.03125,6.125,1839600,6.125,6.0625,4.546095371246338
17-09-1996,5.71875,5.875,3505600,5.9375,5.875,4.405492782592773
18-09-1996,5.875,5.90625,2286800,6.09375,6.0,4.499227523803711
19-09-1996,5.96875,5.96875,2160800,6.09375,6.03125,4.522661209106445
20-09-1996,6.03125,6.03125,601200,6.09375,6.03125,4.522661209106445
23-09-1996,6.0,6.0625,1021600,6.0625,6.03125,4.522661209106445
24-09-1996,5.84375,6.0,1552000,6.0625,5.90625,4.428926944732666
25-09-1996,5.78125,5.90625,1691200,6.0,6.0,4.499227523803711
26-09-1996,6.03125,6.03125,856400,6.15625,6.125,4.592962265014648
27-09-1996,6.0,6.0625,1036000,6.09375,6.03125,4.522661209106445
30-09-1996,6.0,6.0,1134400,6.21875,6.21875,4.663259506225586
01-10-1996,6.25,6.25,956400,6.3125,6.3125,4.733560085296631
02-10-1996,6.28125,6.3125,774800,6.40625,6.375,4.780429363250732
03-10-1996,6.28125,6.375,691600,6.375,6.28125,4.710129261016846
04-10-1996,6.28125,6.34375,592000,6.40625,6.28125,4.710129261016846
07-10-1996,6.25,6.28125,1552000,6.4375,6.40625,4.80386209487915
08-10-1996,6.34375,6.40625,1220000,6.46875,6.375,4.780429363250732
09-10-1996,6.25,6.375,772800,6.375,6.3125,4.733560085296631
10-10-1996,5.9375,6.21875,2254800,6.21875,6.0,4.504579544067383
11-10-1996,5.9375,6.0,1258800,6.0625,5.9375,4.45765495300293
14-10-1996,5.8125,5.9375,2306000,5.96875,5.84375,4.387272834777832
15-10-1996,5.84375,5.875,1424800,6.0,6.0,4.504579544067383
16-10-1996,5.96875,6.0,1880000,6.09375,6.09375,4.5749640464782715
17-10-1996,6.125,6.15625,1636400,6.25,6.25,4.692270278930664
18-10-1996,6.21875,6.25,1060800,6.40625,6.375,4.786117076873779
21-10-1996,6.25,6.34375,722000,6.375,6.25,4.692270278930664
22-10-1996,6.15625,6.25,1494400,6.3125,6.1875,4.6453471183776855
23-10-1996,5.96875,6.15625,2842800,6.15625,6.0,4.504579544067383
24-10-1996,6.0,6.03125,1593200,6.09375,6.0625,4.551504135131836
25-10-1996,6.09375,6.09375,1020000,6.21875,6.21875,4.6688079833984375
28-10-1996,6.09375,6.15625,995600,6.1875,6.09375,4.5749640464782715
29-10-1996,6.03125,6.09375,1533600,6.15625,6.15625,4.621886253356934
30-10-1996,6.15625,6.15625,3300400,6.375,6.375,4.786117076873779
31-10-1996,6.375,6.375,1713200,6.53125,6.4375,4.833038806915283
01-11-1996,6.25,6.4375,1226800,6.46875,6.28125,4.715732097625732
04-11-1996,6.1875,6.25,1135200,6.28125,6.1875,4.6453471183776855
05-11-1996,6.1875,6.25,730800,6.25,6.21875,4.6688079833984375
06-11-1996,6.125,6.21875,395600,6.21875,6.125,4.598427772521973
07-11-1996,6.0,6.0,1647200,6.0625,6.0,4.504579544067383
08-11-1996,6.0,6.0625,1212400,6.15625,6.15625,4.621886253356934
11-11-1996,6.15625,6.1875,1075600,6.28125,6.25,4.692270278930664
12-11-1996,6.25,6.3125,1186400,6.375,6.25,4.692270278930664
13-11-1996,6.25,6.28125,1387200,6.28125,6.28125,4.715732097625732
14-11-1996,6.28125,6.28125,2227200,6.3125,6.3125,4.739190101623535
15-11-1996,6.21875,6.28125,1321600,6.34375,6.25,4.692270278930664
18-11-1996,6.1875,6.25,682000,6.25,6.25,4.692270278930664
19-11-1996,6.21875,6.25,2281600,6.40625,6.40625,4.809577941894531
