Date,Low,Open,Volume,High,Close,Adjusted Close
17-03-1980,1.6796879768371582,0.0,164800,1.75,1.6875,0.5723941326141357
18-03-1980,1.6328129768371582,0.0,188800,1.6875,1.65625,0.5617944598197937
19-03-1980,1.6640629768371582,0.0,84800,1.6875,1.6796879768371582,0.5697441697120667
20-03-1980,1.6484379768371582,0.0,328000,1.6875,1.6875,0.5723941326141357
21-03-1980,1.6640629768371582,0.0,249600,1.6796879768371582,1.6640629768371582,0.5644447207450867
24-03-1980,1.640625,0.0,142400,1.6796879768371582,1.6796879768371582,0.5697441697120667
25-03-1980,1.6640629768371582,0.0,249600,1.6875,1.6640629768371582,0.5644447207450867
26-03-1980,1.6484379768371582,0.0,228800,1.6875,1.65625,0.5617944598197937
27-03-1980,1.640625,0.0,268800,1.65625,1.6484379768371582,0.5591445565223694
28-03-1980,1.6484379768371582,0.0,132800,1.671875,1.65625,0.5617944598197937
31-03-1980,1.671875,0.0,363200,1.796875,1.796875,0.6094936728477478
01-04-1980,1.75,0.0,276800,1.8046879768371582,1.765625,0.5988938212394714
02-04-1980,1.7109379768371582,0.0,86400,1.765625,1.7109379768371582,0.580344557762146
03-04-1980,1.6953129768371582,0.0,156800,1.7265629768371582,1.71875,0.5829936265945435
07-04-1980,1.6875,0.0,195200,1.71875,1.6953129768371582,0.5750441551208496
08-04-1980,1.6875,0.0,414400,1.71875,1.7109379768371582,0.580344557762146
09-04-1980,1.6796879768371582,0.0,432000,1.7109379768371582,1.6875,0.5723941326141357
10-04-1980,1.6796879768371582,0.0,544000,1.703125,1.6875,0.5723941326141357
11-04-1980,1.6953129768371582,0.0,372800,1.734375,1.734375,0.5882941484451294
14-04-1980,1.7265629768371582,0.0,107200,1.75,1.734375,0.5882941484451294
15-04-1980,1.7265629768371582,0.0,110400,1.75,1.7265629768371582,0.5856443047523499
16-04-1980,1.734375,0.0,316800,1.75,1.734375,0.5882941484451294
17-04-1980,1.734375,0.0,108800,1.75,1.734375,0.5882941484451294
18-04-1980,1.734375,0.0,96000,1.75,1.7421879768371582,0.5909435153007507
21-04-1980,1.734375,0.0,128000,1.7421879768371582,1.734375,0.5882941484451294
22-04-1980,1.7265629768371582,0.0,99200,1.765625,1.765625,0.5988938212394714
23-04-1980,1.765625,0.0,123200,1.796875,1.765625,0.5988938212394714
24-04-1980,1.78125,0.0,152000,1.8125,1.7890629768371582,0.6068439483642578
25-04-1980,1.7734379768371582,0.0,67200,1.8125,1.8046879768371582,0.6121438145637512
28-04-1980,1.765625,0.0,361600,1.8046879768371582,1.78125,0.6041938662528992
29-04-1980,1.7890629768371582,0.0,164800,1.8359379768371582,1.8125,0.6147938966751099
30-04-1980,1.796875,0.0,152000,1.84375,1.8359379768371582,0.6227436065673828
01-05-1980,1.8203129768371582,0.0,312000,1.8671879768371582,1.859375,0.6306936144828796
02-05-1980,1.875,0.0,476800,1.953125,1.9453129768371582,0.6598435044288635
05-05-1980,1.90625,0.0,828800,1.9296879768371582,1.9296879768371582,0.6545435786247253
06-05-1980,1.8828129768371582,0.0,216000,1.90625,1.8828129768371582,0.6386434435844421
07-05-1980,1.8671879768371582,0.0,209600,1.90625,1.890625,0.6412933468818665
08-05-1980,1.8984379768371582,0.0,158400,1.9140629768371582,1.8984379768371582,0.6439436674118042
09-05-1980,1.8671879768371582,0.0,129600,1.8984379768371582,1.8671879768371582,0.6333436369895935
12-05-1980,1.8671879768371582,0.0,190400,1.875,1.8671879768371582,0.6333436369895935
13-05-1980,1.859375,0.0,70400,1.875,1.875,0.6359935402870178
14-05-1980,1.859375,0.0,129600,1.875,1.875,0.6359935402870178
15-05-1980,1.8125,0.0,240000,1.875,1.859375,0.6306936144828796
16-05-1980,1.765625,0.0,120000,1.84375,1.765625,0.5988938212394714
19-05-1980,1.765625,0.0,148800,1.7890629768371582,1.7890629768371582,0.6068439483642578
20-05-1980,1.7890629768371582,0.0,158400,1.8359379768371582,1.8359379768371582,0.6227436065673828
21-05-1980,1.8203129768371582,0.0,532800,1.8671879768371582,1.8359379768371582,0.6227436065673828
22-05-1980,1.796875,0.0,571200,1.828125,1.828125,0.6200934052467346
23-05-1980,1.796875,0.0,224000,1.828125,1.828125,0.6200934052467346
27-05-1980,1.8125,0.0,316800,1.8671879768371582,1.828125,0.6200934052467346
28-05-1980,1.8359379768371582,0.0,542400,1.8671879768371582,1.8671879768371582,0.6333436369895935
29-05-1980,1.8515629768371582,0.0,187200,1.875,1.8515629768371582,0.6280437707901001
30-05-1980,1.84375,0.0,227200,1.890625,1.890625,0.6412933468818665
02-06-1980,1.875,0.0,192000,1.90625,1.890625,0.6412933468818665
03-06-1980,1.90625,0.0,320000,1.953125,1.921875,0.6518933176994324
04-06-1980,1.921875,0.0,123200,1.953125,1.9296879768371582,0.6545435786247253
05-06-1980,1.9375,0.0,467200,2.0,1.96875,0.6677930951118469
06-06-1980,1.9375,0.0,120000,1.96875,1.9375,0.6571934819221497
09-06-1980,1.9296879768371582,0.0,83200,1.953125,1.9375,0.6571934819221497
10-06-1980,1.953125,0.0,203200,1.9921879768371582,1.9921879768371582,0.6757432222366333
11-06-1980,1.9765629768371582,0.0,70400,1.9921879768371582,1.9921879768371582,0.6757432222366333
12-06-1980,1.9609379768371582,0.0,128000,1.984375,1.96875,0.6677930951118469
13-06-1980,1.953125,0.0,176000,1.984375,1.984375,0.6730930805206299
16-06-1980,1.953125,0.0,251200,1.984375,1.9765629768371582,0.6704431176185608
17-06-1980,1.953125,0.0,155200,1.9765629768371582,1.953125,0.6624932885169983
18-06-1980,1.9453129768371582,0.0,147200,1.9609379768371582,1.9609379768371582,0.6651430726051331
19-06-1980,1.9375,0.0,187200,1.9609379768371582,1.9375,0.6571934819221497
20-06-1980,1.9375,0.0,300800,1.9609379768371582,1.953125,0.6624932885169983
23-06-1980,1.9375,0.0,128000,1.953125,1.9375,0.6571934819221497
24-06-1980,1.9375,0.0,452800,1.953125,1.9375,0.6571934819221497
25-06-1980,1.9375,0.0,142400,1.9609379768371582,1.9609379768371582,0.6651430726051331
26-06-1980,1.9296879768371582,0.0,152000,1.953125,1.9375,0.6571934819221497
27-06-1980,1.9296879768371582,0.0,737600,1.9375,1.9375,0.6571934819221497
30-06-1980,1.84375,0.0,265600,1.9375,1.875,0.6359935402870178
01-07-1980,1.84375,0.0,1777600,1.890625,1.890625,0.6412933468818665
02-07-1980,1.875,0.0,489600,1.890625,1.8828129768371582,0.6386434435844421
03-07-1980,1.890625,0.0,136000,1.921875,1.8984379768371582,0.6439436674118042
07-07-1980,1.9140629768371582,0.0,193600,1.9375,1.921875,0.6518933176994324
08-07-1980,1.9375,0.0,206400,1.953125,1.953125,0.6624932885169983
09-07-1980,1.9375,0.0,321600,1.9921879768371582,1.9921879768371582,0.6757432222366333
10-07-1980,1.96875,0.0,627200,2.023437976837158,2.0,0.6783931255340576
11-07-1980,1.984375,0.0,158400,2.015625,2.015625,0.6836928725242615
14-07-1980,2.0,0.0,190400,2.054687976837158,2.054687976837158,0.6969431042671204
15-07-1980,2.046875,0.0,291200,2.078125,2.070312976837158,0.7022429704666138
16-07-1980,2.046875,0.0,859200,2.070312976837158,2.070312976837158,0.7022429704666138
17-07-1980,2.0625,0.0,480000,2.085937976837158,2.078125,0.7048926949501038
18-07-1980,2.070312976837158,0.0,652800,2.148437976837158,2.132812976837158,0.7234432101249695
21-07-1980,2.132812976837158,0.0,268800,2.15625,2.15625,0.7313926219940186
22-07-1980,2.148437976837158,0.0,350400,2.171875,2.148437976837158,0.7287425994873047
23-07-1980,2.125,0.0,280000,2.15625,2.125,0.7207925915718079
24-07-1980,2.125,0.0,332800,2.140625,2.140625,0.7260926365852356
25-07-1980,2.125,0.0,121600,2.140625,2.132812976837158,0.7234432101249695
28-07-1980,2.125,0.0,355200,2.140625,2.140625,0.7260926365852356
29-07-1980,2.132812976837158,0.0,188800,2.171875,2.171875,0.7366926670074463
30-07-1980,2.1875,0.0,1552000,2.195312976837158,2.195312976837158,0.7446425557136536
31-07-1980,2.1875,0.0,1233600,2.210937976837158,2.210937976837158,0.7499425411224365
01-08-1980,2.21875,0.0,305600,2.234375,2.226562976837158,0.7552425861358643
04-08-1980,2.21875,0.0,1603200,2.273437976837158,2.273437976837158,0.7711421847343445
05-08-1980,2.226562976837158,0.0,1168000,2.265625,2.25,0.7631924748420715
06-08-1980,2.242187976837158,0.0,254400,2.289062976837158,2.289062976837158,0.7764418721199036
07-08-1980,2.25,0.0,276800,2.273437976837158,2.257812976837158,0.7658419609069824
08-08-1980,2.257812976837158,0.0,598400,2.28125,2.273437976837158,0.7711421847343445
11-08-1980,2.25,0.0,259200,2.257812976837158,2.257812976837158,0.7658419609069824
12-08-1980,2.25,0.0,1137600,2.3125,2.273437976837158,0.7711421847343445
13-08-1980,2.257812976837158,0.0,140800,2.296875,2.265625,0.7684922218322754
14-08-1980,2.25,0.0,126400,2.265625,2.265625,0.7684922218322754
15-08-1980,2.257812976837158,0.0,195200,2.289062976837158,2.257812976837158,0.7658419609069824
18-08-1980,2.203125,0.0,299200,2.25,2.203125,0.7472920417785645
19-08-1980,2.171875,0.0,622400,2.203125,2.179687976837158,0.7393427491188049
20-08-1980,2.148437976837158,0.0,259200,2.195312976837158,2.195312976837158,0.7446425557136536
21-08-1980,2.25,0.0,745600,2.28125,2.265625,0.7684922218322754
22-08-1980,2.257812976837158,0.0,195200,2.28125,2.265625,0.7684922218322754
25-08-1980,2.25,0.0,91200,2.265625,2.25,0.7631924748420715
26-08-1980,2.25,0.0,254400,2.28125,2.265625,0.7684922218322754
27-08-1980,2.21875,0.0,336000,2.257812976837158,2.21875,0.7525922656059265
28-08-1980,2.171875,0.0,212800,2.203125,2.171875,0.7366926670074463
29-08-1980,2.15625,0.0,740800,2.1875,2.171875,0.7366926670074463
02-09-1980,2.171875,0.0,155200,2.195312976837158,2.1875,0.7419923543930054
03-09-1980,2.171875,0.0,1081600,2.265625,2.25,0.7631924748420715
04-09-1980,2.234375,0.0,416000,2.273437976837158,2.25,0.7631924748420715
05-09-1980,2.234375,0.0,731200,2.257812976837158,2.257812976837158,0.7658419609069824
08-09-1980,2.242187976837158,0.0,100800,2.265625,2.242187976837158,0.7605421543121338
09-09-1980,2.234375,0.0,91200,2.242187976837158,2.242187976837158,0.7605421543121338
10-09-1980,2.234375,0.0,83200,2.242187976837158,2.234375,0.757892370223999
11-09-1980,2.234375,0.0,60800,2.25,2.25,0.7631924748420715
12-09-1980,2.242187976837158,0.0,128000,2.265625,2.265625,0.7684922218322754
15-09-1980,2.25,0.0,236800,2.273437976837158,2.25,0.7631924748420715
16-09-1980,2.25,0.0,96000,2.265625,2.265625,0.7684922218322754
17-09-1980,2.25,0.0,1672000,2.335937976837158,2.328125,0.7896919250488281
18-09-1980,2.335937976837158,0.0,201600,2.367187976837158,2.34375,0.7949913144111633
19-09-1980,2.335937976837158,0.0,124800,2.351562976837158,2.34375,0.7949913144111633
22-09-1980,2.34375,0.0,264000,2.359375,2.351562976837158,0.7976414561271667
23-09-1980,2.335937976837158,0.0,488000,2.375,2.351562976837158,0.7976414561271667
24-09-1980,2.328125,0.0,148800,2.335937976837158,2.328125,0.7896919250488281
25-09-1980,2.296875,0.0,265600,2.328125,2.304687976837158,0.7817421555519104
26-09-1980,2.273437976837158,0.0,352000,2.304687976837158,2.289062976837158,0.7764418721199036
29-09-1980,2.265625,0.0,428800,2.28125,2.28125,0.7737922668457031
30-09-1980,2.265625,0.0,124800,2.289062976837158,2.289062976837158,0.7764418721199036
01-10-1980,2.257812976837158,0.0,100800,2.28125,2.257812976837158,0.7658419609069824
02-10-1980,2.25,0.0,585600,2.273437976837158,2.273437976837158,0.7711421847343445
03-10-1980,2.265625,0.0,180800,2.289062976837158,2.28125,0.7737922668457031
06-10-1980,2.265625,0.0,121600,2.296875,2.265625,0.7684922218322754
07-10-1980,2.25,0.0,459200,2.265625,2.25,0.7631924748420715
08-10-1980,2.242187976837158,0.0,817600,2.28125,2.28125,0.7737922668457031
09-10-1980,2.25,0.0,443200,2.28125,2.265625,0.7684922218322754
10-10-1980,2.203125,0.0,796800,2.234375,2.226562976837158,0.7552425861358643
13-10-1980,2.210937976837158,0.0,97600,2.226562976837158,2.226562976837158,0.7552425861358643
14-10-1980,2.203125,0.0,224000,2.25,2.203125,0.7472920417785645
15-10-1980,2.1875,0.0,113600,2.203125,2.195312976837158,0.7446425557136536
16-10-1980,2.171875,0.0,425600,2.203125,2.1875,0.7419923543930054
17-10-1980,2.15625,0.0,300800,2.1875,2.1875,0.7419923543930054
20-10-1980,2.164062976837158,0.0,150400,2.1875,2.1875,0.7419923543930054
21-10-1980,2.1875,0.0,566400,2.25,2.25,0.7631924748420715
22-10-1980,2.210937976837158,0.0,172800,2.273437976837158,2.234375,0.757892370223999
23-10-1980,2.234375,0.0,336000,2.265625,2.25,0.7631924748420715
24-10-1980,2.234375,0.0,168000,2.265625,2.265625,0.7684922218322754
27-10-1980,2.234375,0.0,521600,2.25,2.25,0.7631924748420715
28-10-1980,2.234375,0.0,376000,2.265625,2.257812976837158,0.7658419609069824
29-10-1980,2.25,0.0,251200,2.265625,2.265625,0.7684922218322754
30-10-1980,2.257812976837158,0.0,156800,2.273437976837158,2.265625,0.7684922218322754
31-10-1980,2.25,0.0,243200,2.265625,2.265625,0.7684922218322754
03-11-1980,2.226562976837158,0.0,1062400,2.28125,2.28125,0.7737922668457031
05-11-1980,2.273437976837158,0.0,1062400,2.359375,2.28125,0.7737922668457031
06-11-1980,2.28125,0.0,531200,2.3125,2.296875,0.779092013835907
07-11-1980,2.28125,0.0,579200,2.296875,2.28125,0.7737922668457031
10-11-1980,2.257812976837158,0.0,180800,2.28125,2.273437976837158,0.7711421847343445
11-11-1980,2.265625,0.0,867200,2.28125,2.265625,0.7684922218322754
12-11-1980,2.25,0.0,281600,2.28125,2.273437976837158,0.7711421847343445
13-11-1980,2.257812976837158,0.0,1980800,2.28125,2.273437976837158,0.7711421847343445
14-11-1980,2.273437976837158,0.0,702400,2.304687976837158,2.304687976837158,0.7817421555519104
17-11-1980,2.289062976837158,0.0,1176000,2.34375,2.328125,0.7896919250488281
18-11-1980,2.328125,0.0,164800,2.351562976837158,2.335937976837158,0.7923420667648315
19-11-1980,2.320312976837158,0.0,241600,2.367187976837158,2.359375,0.800291895866394
20-11-1980,2.34375,0.0,377600,2.421875,2.398437976837158,0.8135421276092529
21-11-1980,2.3125,0.0,209600,2.398437976837158,2.359375,0.800291895866394
24-11-1980,2.296875,0.0,243200,2.382812976837158,2.34375,0.7949913144111633
25-11-1980,2.296875,0.0,179200,2.351562976837158,2.3125,0.7843918204307556
26-11-1980,2.195312976837158,0.0,377600,2.265625,2.203125,0.7472920417785645
28-11-1980,2.171875,0.0,323200,2.203125,2.1875,0.7419923543930054
01-12-1980,2.179687976837158,0.0,152000,2.203125,2.1875,0.7419923543930054
02-12-1980,2.171875,0.0,244800,2.203125,2.203125,0.7472920417785645
03-12-1980,2.1875,0.0,182400,2.25,2.25,0.7631924748420715
04-12-1980,2.21875,0.0,643200,2.265625,2.25,0.7631924748420715
05-12-1980,2.234375,0.0,235200,2.25,2.242187976837158,0.7605421543121338
08-12-1980,2.1875,0.0,385600,2.21875,2.203125,0.7472920417785645
09-12-1980,2.1875,0.0,528000,2.203125,2.1875,0.7419923543930054
10-12-1980,2.1875,0.0,206400,2.234375,2.195312976837158,0.7446425557136536
11-12-1980,2.15625,0.0,456000,2.203125,2.15625,0.7313926219940186
12-12-1980,2.148437976837158,0.0,57600,2.171875,2.15625,0.7313926219940186
15-12-1980,2.117187976837158,0.0,472000,2.148437976837158,2.117187976837158,0.7181428670883179
16-12-1980,2.046875,0.0,131200,2.101562976837158,2.0625,0.6995931267738342
17-12-1980,2.070312976837158,0.0,276800,2.101562976837158,2.085937976837158,0.7075430154800415
18-12-1980,2.0625,0.0,168000,2.078125,2.070312976837158,0.7022429704666138
19-12-1980,2.0625,0.0,504000,2.140625,2.140625,0.7260926365852356
22-12-1980,2.125,0.0,384000,2.164062976837158,2.164062976837158,0.7340425252914429
23-12-1980,2.140625,0.0,184000,2.1875,2.15625,0.7313926219940186
24-12-1980,2.132812976837158,0.0,1203200,2.242187976837158,2.242187976837158,0.7605421543121338
26-12-1980,2.226562976837158,0.0,97600,2.265625,2.25,0.7631924748420715
29-12-1980,2.234375,0.0,324800,2.304687976837158,2.265625,0.7684922218322754
30-12-1980,2.234375,0.0,1240000,2.328125,2.328125,0.7896919250488281
31-12-1980,2.320312976837158,0.0,928000,2.546875,2.546875,0.8638907670974731
02-01-1981,2.5,0.0,483200,2.546875,2.546875,0.8638907670974731
05-01-1981,2.5,0.0,1252800,2.601562976837158,2.515625,0.8532916307449341
06-01-1981,2.40625,0.0,296000,2.5,2.421875,0.821491539478302
07-01-1981,2.25,0.0,540800,2.375,2.359375,0.800291895866394
08-01-1981,2.21875,0.0,680000,2.367187976837158,2.296875,0.779092013835907
09-01-1981,2.289062976837158,0.0,1307200,2.398437976837158,2.398437976837158,0.8135421276092529
12-01-1981,2.4375,0.0,1108800,2.554687976837158,2.53125,0.8585910201072693
13-01-1981,2.5,0.0,276800,2.53125,2.515625,0.8532916307449341
14-01-1981,2.5,0.0,1025600,2.578125,2.523437976837158,0.8559414744377136
15-01-1981,2.5,0.0,310400,2.53125,2.515625,0.8532916307449341
16-01-1981,2.507812976837158,0.0,820800,2.640625,2.640625,0.8956908583641052
19-01-1981,2.578125,0.0,768000,2.65625,2.625,0.8903905153274536
20-01-1981,2.640625,0.0,822400,2.671875,2.664062976837158,0.903640866279602
21-01-1981,2.625,0.0,2556800,2.703125,2.6875,0.9115909337997437
22-01-1981,2.609375,0.0,1601600,2.765625,2.640625,0.8956908583641052
23-01-1981,2.578125,0.0,1859200,2.640625,2.625,0.8903905153274536
26-01-1981,2.5625,0.0,329600,2.601562976837158,2.5625,0.8691909909248352
27-01-1981,2.5625,0.0,753600,2.59375,2.585937976837158,0.8771411180496216
28-01-1981,2.578125,0.0,358400,2.648437976837158,2.625,0.8903905153274536
29-01-1981,2.625,0.0,262400,2.6875,2.65625,0.9009906649589539
30-01-1981,2.640625,0.0,358400,2.695312976837158,2.664062976837158,0.903640866279602
02-02-1981,2.578125,0.0,187200,2.648437976837158,2.59375,0.8797913789749146
03-02-1981,2.578125,0.0,313600,2.640625,2.625,0.8903905153274536
04-02-1981,2.570312976837158,0.0,601600,2.65625,2.578125,0.8744912147521973
05-02-1981,2.570312976837158,0.0,201600,2.625,2.625,0.8903905153274536
06-02-1981,2.625,0.0,532800,2.71875,2.710937976837158,0.9195407032966614
09-02-1981,2.664062976837158,0.0,464000,2.71875,2.703125,0.9168901443481445
10-02-1981,2.6875,0.0,472000,2.71875,2.703125,0.9168901443481445
11-02-1981,2.65625,0.0,617600,2.703125,2.6875,0.9115909337997437
12-02-1981,2.625,0.0,196800,2.679687976837158,2.679687976837158,0.9089410901069641
13-02-1981,2.609375,0.0,156800,2.671875,2.640625,0.8956908583641052
17-02-1981,2.601562976837158,0.0,345600,2.65625,2.609375,0.8850910067558289
18-02-1981,2.5625,0.0,428800,2.640625,2.59375,0.8797913789749146
19-02-1981,2.53125,0.0,601600,2.59375,2.546875,0.8638907670974731
20-02-1981,2.539062976837158,0.0,329600,2.554687976837158,2.546875,0.8638907670974731
23-02-1981,2.546875,0.0,427200,2.585937976837158,2.585937976837158,0.8771411180496216
24-02-1981,2.59375,0.0,334400,2.632812976837158,2.625,0.8903905153274536
25-02-1981,2.609375,0.0,4424000,2.9375,2.9375,0.9963898062705994
26-02-1981,2.875,0.0,5041600,3.09375,3.046875,1.0334895849227905
27-02-1981,2.992187976837158,0.0,3398400,3.15625,3.15625,1.0705887079238892
02-03-1981,3.140625,0.0,3272000,3.234375,3.210937976837158,1.0891391038894653
03-03-1981,3.09375,0.0,3803200,3.234375,3.148437976837158,1.067939281463623
04-03-1981,3.0625,0.0,1982400,3.125,3.125,1.059989094734192
05-03-1981,2.984375,0.0,1225600,3.117187976837158,3.0,1.0175892114639282
06-03-1981,2.890625,0.0,1899200,3.039062976837158,3.03125,1.0281894207000732
09-03-1981,2.96875,0.0,712000,3.0625,3.0625,1.0387892723083496
10-03-1981,2.9375,0.0,497600,3.046875,2.960937976837158,1.0043401718139648
11-03-1981,2.914062976837158,0.0,1625600,2.984375,2.96875,1.0069901943206787
12-03-1981,2.9375,0.0,1329600,3.09375,3.078125,1.0440888404846191
13-03-1981,3.09375,0.0,1672000,3.140625,3.125,1.059989094734192
16-03-1981,3.0625,0.0,566400,3.140625,3.109375,1.0546892881393433
17-03-1981,3.117187976837158,0.0,2062400,3.1875,3.164062976837158,1.0732395648956299
18-03-1981,3.125,0.0,1782400,3.296875,3.21875,1.091788649559021
19-03-1981,3.171875,0.0,648000,3.265625,3.171875,1.075889229774475
20-03-1981,3.15625,0.0,884800,3.25,3.195312976837158,1.083838939666748
23-03-1981,3.171875,0.0,368000,3.234375,3.21875,1.091788649559021
24-03-1981,3.125,0.0,760000,3.25,3.179687976837158,1.0785391330718994
25-03-1981,3.171875,0.0,6833600,3.492187976837158,3.453125,1.171288013458252
26-03-1981,3.34375,0.0,2190400,3.46875,3.34375,1.1341885328292847
27-03-1981,3.328125,0.0,1571200,3.460937976837158,3.390625,1.150087833404541
30-03-1981,3.28125,0.0,1011200,3.398437976837158,3.28125,1.1129884719848633
31-03-1981,3.328125,0.0,1208000,3.398437976837158,3.382812976837158,1.1474380493164062
01-04-1981,3.335937976837158,0.0,1326400,3.4375,3.40625,1.1553882360458374
02-04-1981,3.28125,0.0,723200,3.421875,3.359375,1.1394881010055542
03-04-1981,3.28125,0.0,817600,3.367187976837158,3.296875,1.1182888746261597
06-04-1981,3.3125,0.0,2217600,3.609375,3.609375,1.2242872714996338
07-04-1981,3.515625,0.0,2635200,3.640625,3.546875,1.2030878067016602
08-04-1981,3.46875,0.0,968000,3.585937976837158,3.484375,1.181886911392212
09-04-1981,3.46875,0.0,2723200,3.5625,3.515625,1.1924878358840942
10-04-1981,3.46875,0.0,1227200,3.5625,3.5625,1.2083877325057983
13-04-1981,3.5625,0.0,1553600,3.609375,3.578125,1.2136878967285156
14-04-1981,3.484375,0.0,555200,3.5625,3.5,1.1871881484985352
15-04-1981,3.4375,0.0,665600,3.507812976837158,3.492187976837158,1.1845375299453735
16-04-1981,3.476562976837158,0.0,716800,3.523437976837158,3.523437976837158,1.19513738155365
20-04-1981,3.492187976837158,0.0,400000,3.53125,3.515625,1.1924878358840942
21-04-1981,3.296875,0.0,1460800,3.523437976837158,3.296875,1.1182888746261597
22-04-1981,3.28125,0.0,824000,3.367187976837158,3.320312976837158,1.1262378692626953
23-04-1981,3.3125,0.0,907200,3.421875,3.382812976837158,1.1474380493164062
24-04-1981,3.34375,0.0,995200,3.421875,3.40625,1.1553882360458374
27-04-1981,3.375,0.0,1088000,3.453125,3.40625,1.1553882360458374
28-04-1981,3.234375,0.0,592000,3.390625,3.289062976837158,1.1156389713287354
29-04-1981,3.15625,0.0,633600,3.25,3.179687976837158,1.0785391330718994
30-04-1981,3.164062976837158,0.0,756800,3.210937976837158,3.1875,1.0811890363693237
01-05-1981,3.171875,0.0,1225600,3.296875,3.25,1.1023879051208496
04-05-1981,3.171875,0.0,536000,3.25,3.195312976837158,1.083838939666748
05-05-1981,3.09375,0.0,937600,3.140625,3.101562976837158,1.0520391464233398
06-05-1981,3.109375,0.0,716800,3.15625,3.117187976837158,1.0573389530181885
07-05-1981,3.109375,0.0,876800,3.203125,3.1875,1.0811890363693237
08-05-1981,3.164062976837158,0.0,827200,3.203125,3.1875,1.0811890363693237
11-05-1981,3.101562976837158,0.0,372800,3.210937976837158,3.101562976837158,1.0520391464233398
12-05-1981,3.0625,0.0,782400,3.109375,3.078125,1.0440888404846191
13-05-1981,3.046875,0.0,374400,3.125,3.09375,1.0493890047073364
14-05-1981,3.078125,0.0,1054400,3.203125,3.125,1.059989094734192
15-05-1981,3.109375,0.0,748800,3.15625,3.140625,1.0652891397476196
18-05-1981,3.117187976837158,0.0,348800,3.148437976837158,3.132812976837158,1.0626397132873535
19-05-1981,3.125,0.0,654400,3.203125,3.1875,1.0811890363693237
20-05-1981,3.203125,0.0,1464000,3.40625,3.398437976837158,1.152738094329834
21-05-1981,3.320312976837158,0.0,801600,3.398437976837158,3.375,1.1447882652282715
22-05-1981,3.296875,0.0,388800,3.367187976837158,3.328125,1.1288888454437256
26-05-1981,3.289062976837158,0.0,444800,3.328125,3.328125,1.1288888454437256
27-05-1981,3.265625,0.0,400000,3.359375,3.273437976837158,1.1103386878967285
28-05-1981,3.234375,0.0,273600,3.296875,3.234375,1.0970889329910278
29-05-1981,3.171875,0.0,212800,3.21875,3.203125,1.0864888429641724
01-06-1981,3.140625,0.0,1132800,3.242187976837158,3.140625,1.0652891397476196
02-06-1981,3.0,0.0,675200,3.125,3.0625,1.0387892723083496
03-06-1981,2.9375,0.0,411200,3.046875,2.960937976837158,1.0043401718139648
04-06-1981,2.945312976837158,0.0,344000,2.976562976837158,2.96875,1.0069901943206787
05-06-1981,2.921875,0.0,1054400,3.039062976837158,3.03125,1.0281894207000732
08-06-1981,3.015625,0.0,347200,3.078125,3.03125,1.0281894207000732
09-06-1981,3.0,0.0,750400,3.078125,3.046875,1.0334895849227905
10-06-1981,3.0,0.0,369600,3.085937976837158,3.0625,1.0387892723083496
11-06-1981,3.078125,0.0,139200,3.15625,3.15625,1.0705887079238892
12-06-1981,3.085937976837158,0.0,171200,3.140625,3.09375,1.0493890047073364
15-06-1981,3.078125,0.0,233600,3.140625,3.140625,1.0652891397476196
16-06-1981,3.101562976837158,0.0,150400,3.132812976837158,3.109375,1.0546892881393433
17-06-1981,3.054687976837158,0.0,256000,3.09375,3.078125,1.0440888404846191
18-06-1981,3.007812976837158,0.0,185600,3.078125,3.015625,1.022889494895935
19-06-1981,2.9375,0.0,196800,3.0,2.953125,1.0016902685165405
22-06-1981,2.9375,0.0,363200,2.984375,2.960937976837158,1.0043401718139648
23-06-1981,2.945312976837158,0.0,195200,2.992187976837158,2.96875,1.0069901943206787
24-06-1981,2.90625,0.0,224000,2.976562976837158,2.9375,0.9963898062705994
25-06-1981,2.921875,0.0,192000,2.960937976837158,2.9375,0.9963898062705994
26-06-1981,2.828125,0.0,332800,2.929687976837158,2.875,0.975190281867981
29-06-1981,2.875,0.0,454400,2.921875,2.914062976837158,0.9884400367736816
30-06-1981,2.914062976837158,0.0,284800,2.960937976837158,2.9375,0.9963898062705994
01-07-1981,2.921875,0.0,190400,2.953125,2.945312976837158,0.9990396499633789
02-07-1981,2.921875,0.0,67200,2.953125,2.9375,0.9963898062705994
06-07-1981,2.890625,0.0,198400,2.929687976837158,2.90625,0.9857898950576782
07-07-1981,2.796875,0.0,302400,2.898437976837158,2.804687976837158,0.9513401985168457
08-07-1981,2.742187976837158,0.0,870400,2.8125,2.765625,0.9380903244018555
09-07-1981,2.71875,0.0,662400,2.75,2.75,0.9327905178070068
10-07-1981,2.710937976837158,0.0,360000,2.757812976837158,2.71875,0.9221906661987305
13-07-1981,2.6875,0.0,428800,2.726562976837158,2.695312976837158,0.9142404794692993
14-07-1981,2.6875,0.0,577600,2.710937976837158,2.703125,0.9168901443481445
15-07-1981,2.695312976837158,0.0,2560000,2.875,2.796875,0.9486902952194214
16-07-1981,2.796875,0.0,1044800,2.835937976837158,2.835937976837158,0.9619401693344116
17-07-1981,2.828125,0.0,542400,2.898437976837158,2.84375,0.9645900130271912
20-07-1981,2.75,0.0,889600,2.84375,2.765625,0.9380903244018555
21-07-1981,2.742187976837158,0.0,651200,2.8125,2.742187976837158,0.9301403164863586
22-07-1981,2.703125,0.0,379200,2.765625,2.703125,0.9168901443481445
23-07-1981,2.671875,0.0,664000,2.757812976837158,2.726562976837158,0.9248405694961548
24-07-1981,2.71875,0.0,174400,2.765625,2.75,0.9327905178070068
27-07-1981,2.71875,0.0,350400,2.78125,2.71875,0.9221906661987305
28-07-1981,2.703125,0.0,1201600,2.78125,2.78125,0.9433902502059937
29-07-1981,2.78125,0.0,1441600,2.835937976837158,2.796875,0.9486902952194214
30-07-1981,2.773437976837158,0.0,329600,2.820312976837158,2.789062976837158,0.9460403919219971
31-07-1981,2.78125,0.0,241600,2.8125,2.78125,0.9433902502059937
03-08-1981,2.773437976837158,0.0,460800,2.8125,2.796875,0.9486902952194214
04-08-1981,2.757812976837158,0.0,310400,2.8125,2.796875,0.9486902952194214
05-08-1981,2.796875,0.0,454400,2.890625,2.890625,0.9804898500442505
06-08-1981,2.859375,0.0,1337600,2.945312976837158,2.875,0.975190281867981
07-08-1981,2.835937976837158,0.0,129600,2.890625,2.851562976837158,0.9672405123710632
10-08-1981,2.835937976837158,0.0,798400,2.875,2.875,0.975190281867981
11-08-1981,2.890625,0.0,822400,2.96875,2.953125,1.0016902685165405
12-08-1981,2.875,0.0,324800,2.984375,2.882812976837158,0.9778404831886292
13-08-1981,2.835937976837158,0.0,112000,2.875,2.859375,0.9698905348777771
14-08-1981,2.851562976837158,0.0,268800,2.929687976837158,2.90625,0.9857898950576782
17-08-1981,2.851562976837158,0.0,265600,2.921875,2.882812976837158,0.9778404831886292
18-08-1981,2.8125,0.0,1198400,2.882812976837158,2.835937976837158,0.9619401693344116
19-08-1981,2.828125,0.0,326400,2.859375,2.859375,0.9698905348777771
20-08-1981,2.851562976837158,0.0,166400,2.867187976837158,2.851562976837158,0.9672405123710632
21-08-1981,2.828125,0.0,675200,2.859375,2.835937976837158,0.9619401693344116
24-08-1981,2.828125,0.0,747200,2.851562976837158,2.851562976837158,0.9672405123710632
25-08-1981,2.835937976837158,0.0,464000,2.898437976837158,2.882812976837158,0.9778404831886292
26-08-1981,2.867187976837158,0.0,120000,2.890625,2.867187976837158,0.9725399613380432
27-08-1981,2.867187976837158,0.0,112000,2.875,2.867187976837158,0.9725399613380432
28-08-1981,2.867187976837158,0.0,248000,2.875,2.867187976837158,0.9725399613380432
31-08-1981,2.859375,0.0,196800,2.867187976837158,2.859375,0.9698905348777771
01-09-1981,2.867187976837158,0.0,342400,2.875,2.867187976837158,0.9725399613380432
02-09-1981,2.875,0.0,153600,2.898437976837158,2.882812976837158,0.9778404831886292
03-09-1981,2.859375,0.0,315200,2.890625,2.859375,0.9698905348777771
04-09-1981,2.796875,0.0,465600,2.84375,2.8125,0.9539904594421387
08-09-1981,2.65625,0.0,449600,2.789062976837158,2.695312976837158,0.9142404794692993
09-09-1981,2.664062976837158,0.0,278400,2.703125,2.6875,0.9115909337997437
10-09-1981,2.6875,0.0,217600,2.757812976837158,2.726562976837158,0.9248405694961548
11-09-1981,2.6875,0.0,230400,2.726562976837158,2.703125,0.9168901443481445
14-09-1981,2.695312976837158,0.0,393600,2.71875,2.710937976837158,0.9195407032966614
15-09-1981,2.703125,0.0,355200,2.75,2.703125,0.9168901443481445
16-09-1981,2.703125,0.0,403200,2.734375,2.734375,0.9274898171424866
17-09-1981,2.710937976837158,0.0,89600,2.734375,2.710937976837158,0.9195407032966614
18-09-1981,2.632812976837158,0.0,1006400,2.703125,2.640625,0.8956908583641052
21-09-1981,2.640625,0.0,283200,2.648437976837158,2.648437976837158,0.8983410000801086
22-09-1981,2.632812976837158,0.0,240000,2.648437976837158,2.648437976837158,0.8983410000801086
23-09-1981,2.59375,0.0,523200,2.625,2.609375,0.8850910067558289
24-09-1981,2.578125,0.0,484800,2.640625,2.59375,0.8797913789749146
25-09-1981,2.460937976837158,0.0,366400,2.59375,2.46875,0.8373914957046509
28-09-1981,2.390625,0.0,694400,2.546875,2.546875,0.8638907670974731
29-09-1981,2.5625,0.0,737600,2.625,2.5625,0.8691909909248352
30-09-1981,2.5,0.0,313600,2.554687976837158,2.515625,0.8532916307449341
01-10-1981,2.453125,0.0,964800,2.523437976837158,2.492187976837158,0.8453412055969238
02-10-1981,2.476562976837158,0.0,2206400,2.523437976837158,2.523437976837158,0.8559414744377136
05-10-1981,2.476562976837158,0.0,516800,2.53125,2.492187976837158,0.8453412055969238
06-10-1981,2.421875,0.0,513600,2.492187976837158,2.4375,0.8267917037010193
07-10-1981,2.40625,0.0,182400,2.4375,2.421875,0.821491539478302
08-10-1981,2.40625,0.0,644800,2.460937976837158,2.453125,0.8320915699005127
09-10-1981,2.421875,0.0,329600,2.453125,2.4375,0.8267917037010193
12-10-1981,2.414062976837158,0.0,387200,2.4375,2.4375,0.8267917037010193
13-10-1981,2.421875,0.0,110400,2.445312976837158,2.429687976837158,0.8241419792175293
14-10-1981,2.421875,0.0,70400,2.4375,2.421875,0.821491539478302
15-10-1981,2.421875,0.0,132800,2.4375,2.429687976837158,0.8241419792175293
16-10-1981,2.429687976837158,0.0,1144000,2.453125,2.429687976837158,0.8241419792175293
19-10-1981,2.414062976837158,0.0,216000,2.445312976837158,2.445312976837158,0.8294417262077332
20-10-1981,2.390625,0.0,1475200,2.421875,2.390625,0.810891330242157
21-10-1981,2.375,0.0,419200,2.414062976837158,2.390625,0.810891330242157
22-10-1981,2.3125,0.0,283200,2.382812976837158,2.34375,0.7949913144111633
23-10-1981,2.289062976837158,0.0,372800,2.359375,2.296875,0.779092013835907
26-10-1981,2.289062976837158,0.0,108800,2.328125,2.304687976837158,0.7817421555519104
27-10-1981,2.304687976837158,0.0,153600,2.367187976837158,2.351562976837158,0.7976414561271667
28-10-1981,2.351562976837158,0.0,648000,2.421875,2.382812976837158,0.8082419633865356
29-10-1981,2.351562976837158,0.0,318400,2.382812976837158,2.359375,0.800291895866394
30-10-1981,2.351562976837158,0.0,491200,2.390625,2.390625,0.810891330242157
02-11-1981,2.414062976837158,0.0,1241600,2.46875,2.4375,0.8267917037010193
03-11-1981,2.445312976837158,0.0,411200,2.53125,2.53125,0.8585910201072693
04-11-1981,2.5,0.0,1062400,2.53125,2.507812976837158,0.8506419062614441
05-11-1981,2.507812976837158,0.0,451200,2.5625,2.546875,0.8638907670974731
06-11-1981,2.515625,0.0,161600,2.570312976837158,2.5625,0.8691909909248352
09-11-1981,2.539062976837158,0.0,91200,2.570312976837158,2.570312976837158,0.8718413710594177
10-11-1981,2.59375,0.0,137600,2.617187976837158,2.59375,0.8797913789749146
11-11-1981,2.59375,0.0,331200,2.617187976837158,2.617187976837158,0.8877412676811218
12-11-1981,2.59375,0.0,236800,2.640625,2.609375,0.8850910067558289
13-11-1981,2.53125,0.0,358400,2.59375,2.554687976837158,0.8665412068367004
16-11-1981,2.453125,0.0,284800,2.53125,2.476562976837158,0.8400416374206543
17-11-1981,2.46875,0.0,500800,2.5,2.492187976837158,0.8453412055969238
18-11-1981,2.46875,0.0,926400,2.5,2.46875,0.8373914957046509
19-11-1981,2.460937976837158,0.0,518400,2.484375,2.476562976837158,0.8400416374206543
20-11-1981,2.476562976837158,0.0,86400,2.5,2.5,0.847991406917572
23-11-1981,2.445312976837158,0.0,190400,2.492187976837158,2.460937976837158,0.8347417116165161
24-11-1981,2.445312976837158,0.0,150400,2.46875,2.460937976837158,0.8347417116165161
25-11-1981,2.445312976837158,0.0,1275200,2.484375,2.453125,0.8320915699005127
27-11-1981,2.453125,0.0,196800,2.476562976837158,2.476562976837158,0.8400416374206543
30-11-1981,2.460937976837158,0.0,275200,2.53125,2.515625,0.8532916307449341
01-12-1981,2.453125,0.0,657600,2.523437976837158,2.484375,0.84269118309021
02-12-1981,2.445312976837158,0.0,364800,2.507812976837158,2.484375,0.84269118309021
03-12-1981,2.476562976837158,0.0,422400,2.515625,2.515625,0.8532916307449341
04-12-1981,2.5,0.0,1816000,2.53125,2.515625,0.8532916307449341
07-12-1981,2.46875,0.0,400000,2.53125,2.492187976837158,0.8453412055969238
08-12-1981,2.460937976837158,0.0,201600,2.492187976837158,2.46875,0.8373914957046509
09-12-1981,2.460937976837158,0.0,347200,2.492187976837158,2.484375,0.84269118309021
10-12-1981,2.460937976837158,0.0,403200,2.5,2.492187976837158,0.8453412055969238
11-12-1981,2.484375,0.0,281600,2.515625,2.515625,0.8532916307449341
14-12-1981,2.4375,0.0,860800,2.492187976837158,2.453125,0.8320915699005127
15-12-1981,2.390625,0.0,264000,2.453125,2.445312976837158,0.8294417262077332
16-12-1981,2.4375,0.0,113600,2.453125,2.445312976837158,0.8294417262077332
17-12-1981,2.4375,0.0,363200,2.453125,2.4375,0.8267917037010193
18-12-1981,2.421875,0.0,209600,2.445312976837158,2.421875,0.821491539478302
21-12-1981,2.375,0.0,670400,2.4375,2.375,0.805591344833374
22-12-1981,2.359375,0.0,240000,2.390625,2.375,0.805591344833374
23-12-1981,2.351562976837158,0.0,388800,2.382812976837158,2.375,0.805591344833374
24-12-1981,2.367187976837158,0.0,520000,2.382812976837158,2.382812976837158,0.8082419633865356
28-12-1981,2.3125,0.0,1014400,2.375,2.3125,0.7843918204307556
29-12-1981,2.3125,0.0,248000,2.328125,2.3125,0.7843918204307556
30-12-1981,2.3125,0.0,195200,2.335937976837158,2.328125,0.7896919250488281
31-12-1981,2.21875,0.0,580800,2.375,2.359375,0.800291895866394
04-01-1982,2.335937976837158,0.0,728000,2.367187976837158,2.367187976837158,0.8029417395591736
05-01-1982,2.296875,0.0,278400,2.359375,2.328125,0.7896919250488281
06-01-1982,2.289062976837158,0.0,336000,2.328125,2.328125,0.7896919250488281
07-01-1982,2.28125,0.0,408000,2.335937976837158,2.296875,0.779092013835907
08-01-1982,2.257812976837158,0.0,228800,2.3125,2.265625,0.7684922218322754
11-01-1982,2.1875,0.0,5382400,2.265625,2.1875,0.7419923543930054
12-01-1982,2.15625,0.0,358400,2.210937976837158,2.203125,0.7472920417785645
13-01-1982,2.171875,0.0,507200,2.21875,2.1875,0.7419923543930054
14-01-1982,2.15625,0.0,177600,2.179687976837158,2.179687976837158,0.7393427491188049
15-01-1982,2.140625,0.0,291200,2.1875,2.15625,0.7313926219940186
18-01-1982,2.0,0.0,10244800,2.132812976837158,2.0625,0.6995931267738342
19-01-1982,2.039062976837158,0.0,312000,2.085937976837158,2.054687976837158,0.6969431042671204
20-01-1982,2.023437976837158,0.0,492800,2.0625,2.046875,0.6942930221557617
21-01-1982,2.023437976837158,0.0,321600,2.046875,2.046875,0.6942930221557617
22-01-1982,2.0,0.0,1499200,2.03125,2.03125,0.688992977142334
25-01-1982,2.0,0.0,403200,2.03125,2.015625,0.6836928725242615
26-01-1982,1.96875,0.0,1643200,2.015625,2.0,0.6783931255340576
27-01-1982,1.9921879768371582,0.0,345600,2.007812976837158,2.007812976837158,0.6810430288314819
28-01-1982,1.9921879768371582,0.0,492800,2.039062976837158,2.039062976837158,0.6916429996490479
29-01-1982,2.0625,0.0,1184000,2.09375,2.085937976837158,0.7075430154800415
01-02-1982,2.03125,0.0,243200,2.078125,2.046875,0.6942930221557617
02-02-1982,2.007812976837158,0.0,283200,2.0625,2.0625,0.6995931267738342
03-02-1982,2.039062976837158,0.0,523200,2.070312976837158,2.070312976837158,0.7022429704666138
04-02-1982,2.046875,0.0,222400,2.078125,2.078125,0.7048926949501038
05-02-1982,2.070312976837158,0.0,353600,2.148437976837158,2.148437976837158,0.7287425994873047
08-02-1982,2.078125,0.0,721600,2.125,2.078125,0.7048926949501038
09-02-1982,2.015625,0.0,203200,2.046875,2.039062976837158,0.6916429996490479
10-02-1982,2.015625,0.0,596800,2.039062976837158,2.039062976837158,0.6916429996490479
11-02-1982,1.9296879768371582,0.0,480000,2.039062976837158,1.953125,0.6624932885169983
12-02-1982,1.9375,0.0,304000,1.9765629768371582,1.9765629768371582,0.6704431176185608
16-02-1982,1.9375,0.0,512000,1.984375,1.984375,0.6730930805206299
17-02-1982,1.9609379768371582,0.0,233600,2.0,1.9765629768371582,0.6704431176185608
18-02-1982,1.9375,0.0,363200,1.9765629768371582,1.9765629768371582,0.6704431176185608
19-02-1982,1.9453129768371582,0.0,192000,1.984375,1.96875,0.6677930951118469
22-02-1982,1.9375,0.0,1331200,2.023437976837158,1.9453129768371582,0.6598435044288635
23-02-1982,1.9453129768371582,0.0,182400,1.96875,1.9609379768371582,0.6651430726051331
24-02-1982,1.921875,0.0,2142400,1.9609379768371582,1.953125,0.6624932885169983
25-02-1982,1.953125,0.0,889600,1.9765629768371582,1.953125,0.6624932885169983
26-02-1982,1.9453129768371582,0.0,939200,1.96875,1.9609379768371582,0.6651430726051331
01-03-1982,1.9375,0.0,419200,1.96875,1.9375,0.6571934819221497
02-03-1982,1.921875,0.0,336000,1.953125,1.9296879768371582,0.6545435786247253
03-03-1982,1.890625,0.0,409600,1.9296879768371582,1.90625,0.6465933918952942
04-03-1982,1.8828129768371582,0.0,235200,1.921875,1.890625,0.6412933468818665
05-03-1982,1.875,0.0,265600,1.90625,1.875,0.6359935402870178
08-03-1982,1.84375,0.0,560000,1.8828129768371582,1.84375,0.6253939867019653
09-03-1982,1.8125,0.0,1928000,1.8515629768371582,1.828125,0.6200934052467346
10-03-1982,1.8203129768371582,0.0,656000,1.859375,1.859375,0.6306936144828796
11-03-1982,1.84375,0.0,712000,1.9375,1.9375,0.6571934819221497
12-03-1982,1.90625,0.0,336000,1.9609379768371582,1.9609379768371582,0.6651430726051331
15-03-1982,1.9453129768371582,0.0,176000,2.0,1.9921879768371582,0.6757432222366333
16-03-1982,1.9765629768371582,0.0,998400,2.007812976837158,2.007812976837158,0.6810430288314819
17-03-1982,1.96875,0.0,952000,2.023437976837158,2.0,0.6783931255340576
18-03-1982,1.9375,0.0,616000,2.0,1.96875,0.6677930951118469
19-03-1982,1.9375,0.0,812800,1.96875,1.96875,0.6677930951118469
22-03-1982,1.9375,0.0,342400,1.96875,1.9609379768371582,0.6651430726051331
23-03-1982,1.9609379768371582,0.0,1097600,2.015625,1.9921879768371582,0.6757432222366333
24-03-1982,2.0,0.0,291200,2.03125,2.015625,0.6836928725242615
25-03-1982,1.96875,0.0,1993600,2.0,1.9921879768371582,0.6757432222366333
26-03-1982,1.953125,0.0,265600,1.9921879768371582,1.9609379768371582,0.6651430726051331
29-03-1982,1.9609379768371582,0.0,44800,1.984375,1.984375,0.6730930805206299
30-03-1982,1.9765629768371582,0.0,248000,2.007812976837158,1.9921879768371582,0.6757432222366333
31-03-1982,1.96875,0.0,72000,1.984375,1.9765629768371582,0.6704431176185608
01-04-1982,1.96875,0.0,228800,2.0,2.0,0.6783931255340576
02-04-1982,1.9765629768371582,0.0,385600,2.015625,2.007812976837158,0.6810430288314819
05-04-1982,2.0,0.0,372800,2.03125,2.007812976837158,0.6810430288314819
06-04-1982,2.007812976837158,0.0,211200,2.023437976837158,2.015625,0.6836928725242615
07-04-1982,2.007812976837158,0.0,254400,2.03125,2.03125,0.688992977142334
08-04-1982,2.015625,0.0,155200,2.046875,2.023437976837158,0.6863431334495544
12-04-1982,2.007812976837158,0.0,131200,2.039062976837158,2.023437976837158,0.6863431334495544
13-04-1982,2.023437976837158,0.0,312000,2.046875,2.039062976837158,0.6916429996490479
14-04-1982,2.023437976837158,0.0,408000,2.054687976837158,2.054687976837158,0.6969431042671204
15-04-1982,2.0,0.0,2214400,2.054687976837158,2.007812976837158,0.6810430288314819
16-04-1982,1.984375,0.0,672000,2.015625,2.0,0.6783931255340576
19-04-1982,1.9921879768371582,0.0,412800,2.015625,2.015625,0.6836928725242615
20-04-1982,2.0,0.0,228800,2.015625,2.015625,0.6836928725242615
21-04-1982,2.0,0.0,352000,2.03125,2.015625,0.6836928725242615
22-04-1982,2.0,0.0,467200,2.03125,2.015625,0.6836928725242615
23-04-1982,2.007812976837158,0.0,787200,2.054687976837158,2.054687976837158,0.6969431042671204
26-04-1982,2.070312976837158,0.0,516800,2.117187976837158,2.117187976837158,0.7181428670883179
27-04-1982,2.109375,0.0,404800,2.15625,2.117187976837158,0.7181428670883179
28-04-1982,2.117187976837158,0.0,116800,2.148437976837158,2.125,0.7207925915718079
29-04-1982,2.078125,0.0,249600,2.125,2.085937976837158,0.7075430154800415
30-04-1982,2.046875,0.0,862400,2.132812976837158,2.132812976837158,0.7234432101249695
03-05-1982,2.09375,0.0,3374400,2.164062976837158,2.15625,0.7313926219940186
04-05-1982,2.101562976837158,0.0,3448000,2.15625,2.117187976837158,0.7181428670883179
05-05-1982,2.09375,0.0,745600,2.140625,2.117187976837158,0.7181428670883179
06-05-1982,2.101562976837158,0.0,491200,2.140625,2.109375,0.7154921889305115
07-05-1982,2.09375,0.0,235200,2.125,2.109375,0.7154921889305115
10-05-1982,2.09375,0.0,78400,2.125,2.101562976837158,0.7128427028656006
11-05-1982,2.101562976837158,0.0,164800,2.140625,2.132812976837158,0.7234432101249695
12-05-1982,2.117187976837158,0.0,316800,2.171875,2.140625,0.7260926365852356
13-05-1982,2.0625,0.0,2137600,2.148437976837158,2.078125,0.7048926949501038
14-05-1982,2.0625,0.0,3348800,2.109375,2.109375,0.7154921889305115
17-05-1982,2.09375,0.0,280000,2.125,2.109375,0.7154921889305115
18-05-1982,2.101562976837158,0.0,369600,2.125,2.109375,0.7154921889305115
19-05-1982,2.109375,0.0,539200,2.15625,2.125,0.7207925915718079
20-05-1982,2.101562976837158,0.0,315200,2.140625,2.140625,0.7260926365852356
21-05-1982,2.09375,0.0,737600,2.140625,2.125,0.7207925915718079
24-05-1982,2.09375,0.0,81600,2.125,2.101562976837158,0.7128427028656006
25-05-1982,2.070312976837158,0.0,195200,2.109375,2.085937976837158,0.7075430154800415
26-05-1982,2.070312976837158,0.0,376000,2.09375,2.070312976837158,0.7022429704666138
27-05-1982,2.015625,0.0,241600,2.070312976837158,2.070312976837158,0.7022429704666138
28-05-1982,2.054687976837158,0.0,100800,2.085937976837158,2.078125,0.7048926949501038
01-06-1982,1.96875,0.0,196800,2.085937976837158,1.984375,0.6730930805206299
02-06-1982,1.984375,0.0,427200,2.03125,2.03125,0.688992977142334
03-06-1982,2.0,0.0,928000,2.078125,2.015625,0.6836928725242615
04-06-1982,1.921875,0.0,1617600,2.0,1.9375,0.6571934819221497
07-06-1982,1.9140629768371582,0.0,307200,1.953125,1.921875,0.6518933176994324
08-06-1982,1.890625,0.0,337600,1.921875,1.8984379768371582,0.6439436674118042
09-06-1982,1.828125,0.0,2569600,1.890625,1.8359379768371582,0.6227436065673828
10-06-1982,1.8203129768371582,0.0,107200,1.875,1.8671879768371582,0.6333436369895935
11-06-1982,1.8984379768371582,0.0,646400,1.9140629768371582,1.9140629768371582,0.6492437720298767
14-06-1982,1.890625,0.0,726400,1.921875,1.921875,0.6518933176994324
15-06-1982,1.890625,0.0,846400,1.921875,1.921875,0.6518933176994324
16-06-1982,1.921875,0.0,409600,1.9453129768371582,1.9375,0.6571934819221497
17-06-1982,1.90625,0.0,161600,1.9296879768371582,1.9296879768371582,0.6545435786247253
18-06-1982,1.90625,0.0,121600,1.9453129768371582,1.921875,0.6518933176994324
21-06-1982,1.8828129768371582,0.0,140800,1.921875,1.8984379768371582,0.6439436674118042
22-06-1982,1.8828129768371582,0.0,100800,1.90625,1.90625,0.6465933918952942
23-06-1982,1.9140629768371582,0.0,182400,1.9609379768371582,1.953125,0.6624932885169983
24-06-1982,1.953125,0.0,635200,1.9921879768371582,1.9609379768371582,0.6651430726051331
25-06-1982,1.9453129768371582,0.0,168000,1.984375,1.9765629768371582,0.6704431176185608
28-06-1982,1.984375,0.0,752000,2.023437976837158,2.0,0.6783931255340576
29-06-1982,2.0,0.0,566400,2.09375,2.09375,0.7101926207542419
30-06-1982,2.03125,0.0,728000,2.085937976837158,2.078125,0.7048926949501038
01-07-1982,2.0625,0.0,1262400,2.085937976837158,2.085937976837158,0.7075430154800415
02-07-1982,2.070312976837158,0.0,228800,2.078125,2.078125,0.7048926949501038
06-07-1982,2.046875,0.0,910400,2.085937976837158,2.046875,0.6942930221557617
07-07-1982,2.0,0.0,244800,2.0625,2.0,0.6783931255340576
08-07-1982,2.0,0.0,256000,2.046875,2.039062976837158,0.6916429996490479
09-07-1982,2.039062976837158,0.0,971200,2.0625,2.0625,0.6995931267738342
12-07-1982,2.046875,0.0,321600,2.09375,2.0625,0.6995931267738342
13-07-1982,2.046875,0.0,1595200,2.070312976837158,2.046875,0.6942930221557617
14-07-1982,2.0,0.0,80000,2.03125,2.015625,0.6836928725242615
15-07-1982,2.0,0.0,219200,2.046875,2.03125,0.688992977142334
16-07-1982,2.0,0.0,1366400,2.03125,2.023437976837158,0.6863431334495544
19-07-1982,2.03125,0.0,1960000,2.0625,2.046875,0.6942930221557617
20-07-1982,2.046875,0.0,907200,2.09375,2.085937976837158,0.7075430154800415
21-07-1982,2.09375,0.0,1259200,2.179687976837158,2.171875,0.7366926670074463
22-07-1982,2.164062976837158,0.0,206400,2.21875,2.203125,0.7472920417785645
23-07-1982,2.171875,0.0,185600,2.226562976837158,2.1875,0.7419923543930054
26-07-1982,2.1875,0.0,324800,2.242187976837158,2.242187976837158,0.7605421543121338
27-07-1982,2.210937976837158,0.0,184000,2.226562976837158,2.226562976837158,0.7552425861358643
28-07-1982,2.132812976837158,0.0,358400,2.21875,2.140625,0.7260926365852356
29-07-1982,2.109375,0.0,401600,2.203125,2.203125,0.7472920417785645
30-07-1982,2.195312976837158,0.0,336000,2.226562976837158,2.226562976837158,0.7552425861358643
02-08-1982,2.21875,0.0,564800,2.28125,2.273437976837158,0.7711421847343445
03-08-1982,2.234375,0.0,1036800,2.28125,2.25,0.7631924748420715
04-08-1982,2.140625,0.0,4504000,2.203125,2.148437976837158,0.7287425994873047
05-08-1982,2.09375,0.0,241600,2.140625,2.117187976837158,0.7181428670883179
06-08-1982,2.03125,0.0,753600,2.117187976837158,2.03125,0.688992977142334
09-08-1982,2.007812976837158,0.0,225600,2.054687976837158,2.054687976837158,0.6969431042671204
10-08-1982,2.046875,0.0,363200,2.078125,2.078125,0.7048926949501038
11-08-1982,2.070312976837158,0.0,219200,2.085937976837158,2.078125,0.7048926949501038
12-08-1982,2.070312976837158,0.0,756800,2.101562976837158,2.085937976837158,0.7075430154800415
13-08-1982,2.085937976837158,0.0,801600,2.117187976837158,2.109375,0.7154921889305115
16-08-1982,2.101562976837158,0.0,670400,2.132812976837158,2.117187976837158,0.7181428670883179
17-08-1982,2.125,0.0,614400,2.179687976837158,2.179687976837158,0.7393427491188049
18-08-1982,2.25,0.0,2147200,2.34375,2.296875,0.779092013835907
19-08-1982,2.28125,0.0,1566400,2.3125,2.3125,0.7843918204307556
20-08-1982,2.328125,0.0,1852800,2.484375,2.4375,0.8267917037010193
23-08-1982,2.414062976837158,0.0,1672000,2.5,2.421875,0.821491539478302
24-08-1982,2.375,0.0,1491200,2.4375,2.40625,0.8161916136741638
25-08-1982,2.375,0.0,1664000,2.507812976837158,2.4375,0.8267917037010193
26-08-1982,2.40625,0.0,1835200,2.53125,2.445312976837158,0.8294417262077332
27-08-1982,2.375,0.0,1766400,2.453125,2.40625,0.8161916136741638
30-08-1982,2.40625,0.0,1560000,2.515625,2.515625,0.8532916307449341
31-08-1982,2.53125,0.0,1078400,2.59375,2.53125,0.8585910201072693
01-09-1982,2.515625,0.0,611200,2.5625,2.515625,0.8532916307449341
02-09-1982,2.390625,0.0,681600,2.523437976837158,2.476562976837158,0.8400416374206543
03-09-1982,2.492187976837158,0.0,932800,2.554687976837158,2.539062976837158,0.8612414002418518
07-09-1982,2.53125,0.0,1057600,2.5625,2.546875,0.8638907670974731
08-09-1982,2.53125,0.0,369600,2.554687976837158,2.53125,0.8585910201072693
09-09-1982,2.53125,0.0,905600,2.554687976837158,2.53125,0.8585910201072693
10-09-1982,2.445312976837158,0.0,1099200,2.53125,2.484375,0.84269118309021
13-09-1982,2.40625,0.0,2040000,2.492187976837158,2.484375,0.84269118309021
14-09-1982,2.476562976837158,0.0,827200,2.539062976837158,2.484375,0.84269118309021
15-09-1982,2.453125,0.0,534400,2.515625,2.515625,0.8532916307449341
16-09-1982,2.460937976837158,0.0,1214400,2.53125,2.492187976837158,0.8453412055969238
17-09-1982,2.445312976837158,0.0,1208000,2.515625,2.46875,0.8373914957046509
20-09-1982,2.4375,0.0,584000,2.492187976837158,2.492187976837158,0.8453412055969238
21-09-1982,2.476562976837158,0.0,1401600,2.515625,2.515625,0.8532916307449341
22-09-1982,2.578125,0.0,2398400,2.617187976837158,2.585937976837158,0.8771411180496216
23-09-1982,2.539062976837158,0.0,457600,2.5625,2.5625,0.8691909909248352
24-09-1982,2.53125,0.0,444800,2.5625,2.5625,0.8691909909248352
27-09-1982,2.53125,0.0,627200,2.5625,2.546875,0.8638907670974731
28-09-1982,2.546875,0.0,1088000,2.59375,2.546875,0.8638907670974731
29-09-1982,2.5,0.0,868800,2.5625,2.5,0.847991406917572
30-09-1982,2.421875,0.0,380800,2.484375,2.460937976837158,0.8347417116165161
01-10-1982,2.445312976837158,0.0,617600,2.5,2.5,0.847991406917572
04-10-1982,2.476562976837158,0.0,1147200,2.515625,2.507812976837158,0.8506419062614441
05-10-1982,2.5,0.0,1032000,2.53125,2.515625,0.8532916307449341
06-10-1982,2.515625,0.0,1368000,2.570312976837158,2.5625,0.8691909909248352
07-10-1982,2.5625,0.0,841600,2.625,2.609375,0.8850910067558289
08-10-1982,2.578125,0.0,324800,2.609375,2.59375,0.8797913789749146
11-10-1982,2.585937976837158,0.0,542400,2.640625,2.617187976837158,0.8877412676811218
12-10-1982,2.625,0.0,1148800,2.679687976837158,2.679687976837158,0.9089410901069641
13-10-1982,2.671875,0.0,668800,2.84375,2.828125,0.9592902660369873
14-10-1982,2.65625,0.0,795200,2.84375,2.65625,0.9009906649589539
15-10-1982,2.59375,0.0,521600,2.65625,2.632812976837158,0.89304119348526
18-10-1982,2.648437976837158,0.0,326400,2.734375,2.734375,0.9274898171424866
19-10-1982,2.75,0.0,448000,2.8125,2.804687976837158,0.9513401985168457
20-10-1982,2.8125,0.0,1268800,2.9375,2.875,0.975190281867981
21-10-1982,2.914062976837158,0.0,7321600,3.023437976837158,2.96875,1.0069901943206787
22-10-1982,3.046875,0.0,2614400,3.140625,3.070312976837158,1.0414390563964844
25-10-1982,2.875,0.0,764800,3.0625,2.890625,0.9804898500442505
26-10-1982,2.828125,0.0,988800,2.921875,2.921875,0.9910900592803955
27-10-1982,2.984375,0.0,780800,3.070312976837158,3.070312976837158,1.0414390563964844
28-10-1982,3.054687976837158,0.0,1020800,3.085937976837158,3.0625,1.0387892723083496
29-10-1982,2.96875,0.0,1156800,3.070312976837158,3.007812976837158,1.0202397108078003
01-11-1982,2.945312976837158,0.0,1216000,3.007812976837158,3.0,1.0175892114639282
02-11-1982,2.976562976837158,0.0,1259200,3.039062976837158,3.015625,1.022889494895935
03-11-1982,3.015625,0.0,1827200,3.179687976837158,3.15625,1.0705887079238892
04-11-1982,3.234375,0.0,2828800,3.351562976837158,3.25,1.1023879051208496
05-11-1982,3.09375,0.0,1425600,3.335937976837158,3.335937976837158,1.1315385103225708
08-11-1982,3.1875,0.0,732800,3.304687976837158,3.273437976837158,1.1103386878967285
09-11-1982,3.21875,0.0,1198400,3.296875,3.21875,1.091788649559021
10-11-1982,3.21875,0.0,739200,3.273437976837158,3.234375,1.0970889329910278
11-11-1982,3.15625,0.0,705600,3.21875,3.164062976837158,1.0732395648956299
12-11-1982,3.164062976837158,0.0,312000,3.203125,3.171875,1.075889229774475
15-11-1982,3.03125,0.0,1032000,3.171875,3.0625,1.0387892723083496
16-11-1982,3.015625,0.0,918400,3.09375,3.0625,1.0387892723083496
17-11-1982,3.078125,0.0,1840000,3.140625,3.109375,1.0546892881393433
18-11-1982,3.09375,0.0,504000,3.148437976837158,3.140625,1.0652891397476196
19-11-1982,3.109375,0.0,796800,3.1875,3.109375,1.0546892881393433
22-11-1982,3.078125,0.0,769600,3.210937976837158,3.078125,1.0440888404846191
23-11-1982,2.921875,0.0,617600,3.125,2.921875,0.9910900592803955
24-11-1982,2.9375,0.0,529600,3.0625,3.039062976837158,1.0308398008346558
26-11-1982,3.054687976837158,0.0,344000,3.125,3.109375,1.0546892881393433
29-11-1982,3.117187976837158,0.0,272000,3.171875,3.140625,1.0652891397476196
30-11-1982,3.109375,0.0,496000,3.171875,3.140625,1.0652891397476196
01-12-1982,3.1875,0.0,611200,3.234375,3.203125,1.0864888429641724
02-12-1982,3.203125,0.0,649600,3.28125,3.234375,1.0970889329910278
03-12-1982,3.1875,0.0,412800,3.25,3.21875,1.091788649559021
06-12-1982,3.21875,0.0,459200,3.265625,3.25,1.1023879051208496
07-12-1982,3.25,0.0,1816000,3.3125,3.265625,1.107688546180725
08-12-1982,3.21875,0.0,244800,3.28125,3.21875,1.091788649559021
09-12-1982,3.15625,0.0,126400,3.1875,3.15625,1.0705887079238892
10-12-1982,3.078125,0.0,145600,3.179687976837158,3.09375,1.0493890047073364
13-12-1982,2.984375,0.0,572800,3.0625,3.0,1.0175892114639282
14-12-1982,3.0,0.0,286400,3.078125,3.0,1.0175892114639282
15-12-1982,2.96875,0.0,160000,3.0,2.976562976837158,1.009640097618103
16-12-1982,2.882812976837158,0.0,1177600,2.96875,2.945312976837158,0.9990396499633789
17-12-1982,3.015625,0.0,291200,3.09375,3.09375,1.0493890047073364
20-12-1982,3.046875,0.0,868800,3.09375,3.078125,1.0440888404846191
21-12-1982,3.078125,0.0,160000,3.109375,3.109375,1.0546892881393433
22-12-1982,3.109375,0.0,694400,3.234375,3.234375,1.0970889329910278
23-12-1982,3.265625,0.0,291200,3.3125,3.28125,1.1129884719848633
27-12-1982,3.109375,0.0,803200,3.28125,3.210937976837158,1.0891391038894653
28-12-1982,3.203125,0.0,744000,3.328125,3.296875,1.1182888746261597
29-12-1982,3.234375,0.0,473600,3.304687976837158,3.28125,1.1129884719848633
30-12-1982,3.265625,0.0,315200,3.3125,3.265625,1.107688546180725
31-12-1982,3.210937976837158,0.0,145600,3.25,3.234375,1.0970889329910278
03-01-1983,3.140625,0.0,499200,3.171875,3.15625,1.0705887079238892
04-01-1983,3.140625,0.0,353600,3.21875,3.21875,1.091788649559021
05-01-1983,3.234375,0.0,515200,3.296875,3.257812976837158,1.1050382852554321
06-01-1983,3.265625,0.0,1033600,3.46875,3.421875,1.1606886386871338
07-01-1983,3.421875,0.0,2430400,3.609375,3.570312976837158,1.2110369205474854
10-01-1983,3.46875,0.0,899200,3.539062976837158,3.5,1.1871881484985352
11-01-1983,3.453125,0.0,830400,3.515625,3.5,1.1871881484985352
12-01-1983,3.359375,0.0,593600,3.5,3.359375,1.1394881010055542
13-01-1983,3.265625,0.0,724800,3.390625,3.382812976837158,1.1474380493164062
14-01-1983,3.28125,0.0,454400,3.40625,3.40625,1.1553882360458374
17-01-1983,3.382812976837158,0.0,652800,3.414062976837158,3.390625,1.150087833404541
18-01-1983,3.375,0.0,288000,3.484375,3.484375,1.181886911392212
19-01-1983,3.375,0.0,1323200,3.492187976837158,3.453125,1.171288013458252
20-01-1983,3.328125,0.0,425600,3.429687976837158,3.359375,1.1394881010055542
21-01-1983,3.257812976837158,0.0,241600,3.359375,3.28125,1.1129884719848633
24-01-1983,3.15625,0.0,656000,3.242187976837158,3.21875,1.091788649559021
25-01-1983,3.171875,0.0,332800,3.296875,3.21875,1.091788649559021
26-01-1983,3.21875,0.0,328000,3.265625,3.234375,1.0970889329910278
27-01-1983,3.265625,0.0,484800,3.40625,3.359375,1.1394881010055542
28-01-1983,3.375,0.0,462400,3.429687976837158,3.40625,1.1553882360458374
31-01-1983,3.40625,0.0,1908800,3.445312976837158,3.429687976837158,1.1633378267288208
01-02-1983,3.375,0.0,1342400,3.453125,3.375,1.1447882652282715
02-02-1983,3.34375,0.0,249600,3.398437976837158,3.375,1.1447882652282715
03-02-1983,3.351562976837158,0.0,200000,3.40625,3.390625,1.150087833404541
04-02-1983,3.34375,0.0,1100800,3.421875,3.40625,1.1553882360458374
07-02-1983,3.390625,0.0,1614400,3.460937976837158,3.421875,1.1606886386871338
08-02-1983,3.359375,0.0,667200,3.421875,3.375,1.1447882652282715
09-02-1983,3.3125,0.0,299200,3.375,3.367187976837158,1.1421383619308472
10-02-1983,3.375,0.0,784000,3.40625,3.40625,1.1553882360458374
11-02-1983,3.390625,0.0,768000,3.414062976837158,3.40625,1.1553882360458374
14-02-1983,3.390625,0.0,532800,3.40625,3.390625,1.150087833404541
15-02-1983,3.328125,0.0,1260800,3.390625,3.34375,1.1341885328292847
16-02-1983,3.34375,0.0,881600,3.398437976837158,3.375,1.1447882652282715
17-02-1983,3.34375,0.0,2440000,3.421875,3.390625,1.150087833404541
18-02-1983,3.375,0.0,846400,3.421875,3.375,1.1447882652282715
22-02-1983,3.375,0.0,1120000,3.40625,3.398437976837158,1.152738094329834
23-02-1983,3.34375,0.0,1406400,3.398437976837158,3.398437976837158,1.152738094329834
24-02-1983,3.414062976837158,0.0,2683200,3.5625,3.5625,1.2083877325057983
25-02-1983,3.53125,0.0,2368000,3.601562976837158,3.539062976837158,1.2004371881484985
28-02-1983,3.578125,0.0,1920000,3.625,3.617187976837158,1.2269372940063477
01-03-1983,3.625,0.0,1411200,3.703125,3.6875,1.2507879734039307
02-03-1983,3.695312976837158,0.0,1604800,3.75,3.742187976837158,1.2693371772766113
03-03-1983,3.71875,0.0,1451200,3.765625,3.71875,1.2613872289657593
04-03-1983,3.671875,0.0,840000,3.734375,3.703125,1.256087064743042
07-03-1983,3.703125,0.0,425600,3.734375,3.71875,1.2613872289657593
08-03-1983,3.65625,0.0,1718400,3.734375,3.65625,1.2401868104934692
09-03-1983,3.640625,0.0,366400,3.6875,3.671875,1.2454872131347656
10-03-1983,3.6875,0.0,595200,3.726562976837158,3.6875,1.2507879734039307
11-03-1983,3.671875,0.0,548800,3.695312976837158,3.695312976837158,1.2534382343292236
14-03-1983,3.671875,0.0,542400,3.734375,3.726562976837158,1.2640371322631836
15-03-1983,3.695312976837158,0.0,740800,3.726562976837158,3.726562976837158,1.2640371322631836
16-03-1983,3.734375,0.0,1308800,3.757812976837158,3.75,1.2719870805740356
17-03-1983,3.75,0.0,859200,3.828125,3.8125,1.2931867837905884
18-03-1983,3.8125,0.0,1619200,4.0,3.984375,1.3514859676361084
21-03-1983,3.875,0.0,937600,3.976562976837158,3.90625,1.3249865770339966
22-03-1983,3.90625,0.0,1076800,3.96875,3.9375,1.3355861902236938
23-03-1983,3.921875,0.0,940800,3.960937976837158,3.921875,1.330285906791687
24-03-1983,3.875,0.0,536000,3.929687976837158,3.890625,1.3196865320205688
25-03-1983,3.859375,0.0,564800,3.898437976837158,3.875,1.3143869638442993
28-03-1983,3.859375,0.0,416000,3.898437976837158,3.890625,1.3196865320205688
29-03-1983,3.859375,0.0,576000,3.890625,3.859375,1.309086799621582
30-03-1983,3.789062976837158,0.0,403200,3.867187976837158,3.820312976837158,1.2958372831344604
31-03-1983,3.835937976837158,0.0,547200,3.875,3.84375,1.3037866353988647
04-04-1983,3.84375,0.0,168000,3.875,3.859375,1.309086799621582
05-04-1983,3.84375,0.0,947200,3.875,3.859375,1.309086799621582
06-04-1983,3.8125,3.84375,960000,3.859375,3.84375,1.3037866353988647
07-04-1983,3.828125,3.859375,464000,3.859375,3.84375,1.3037866353988647
08-04-1983,3.75,3.84375,219200,3.84375,3.765625,1.2772865295410156
11-04-1983,3.75,3.765625,387200,3.796875,3.765625,1.2772865295410156
12-04-1983,3.78125,3.796875,313600,3.828125,3.828125,1.2984874248504639
13-04-1983,3.84375,3.84375,401600,3.90625,3.90625,1.3249865770339966
14-04-1983,3.914062976837158,3.9375,316800,3.953125,3.9375,1.3355861902236938
15-04-1983,3.914062976837158,3.953125,286400,3.960937976837158,3.914062976837158,1.3276363611221313
18-04-1983,3.888672113418579,3.914062976837158,337600,3.929687976837158,3.929687976837158,1.332936406135559
19-04-1983,3.898437976837158,3.929687976837158,494400,3.976562976837158,3.976562976837158,1.3488363027572632
20-04-1983,3.96875,3.976562976837158,198400,3.992187976837158,3.984375,1.3514859676361084
21-04-1983,3.953125,3.984375,465600,4.015625,3.953125,1.3408857583999634
22-04-1983,3.9375,3.960937976837158,182400,4.0,3.953125,1.3408857583999634
25-04-1983,3.90625,3.953125,468800,4.0,3.96875,1.3461861610412598
26-04-1983,3.96875,3.992187976837158,272000,4.015625,4.0,1.3567862510681152
27-04-1983,4.0,4.046875,387200,4.09375,4.023437976837158,1.3647363185882568
28-04-1983,4.015625,4.03125,571200,4.046875,4.039062976837158,1.3700352907180786
29-04-1983,4.039062976837158,4.0625,619200,4.085937976837158,4.085937976837158,1.38593590259552
02-05-1983,4.046875,4.085937976837158,670400,4.117187976837158,4.054687976837158,1.375335931777954
03-05-1983,4.0,4.023437976837158,428800,4.039062976837158,4.039062976837158,1.3700352907180786
04-05-1983,3.976562976837158,4.007812976837158,451200,4.03125,3.992187976837158,1.3666127920150757
05-05-1983,3.921875,3.96875,740800,4.007812976837158,3.9375,1.3478920459747314
06-05-1983,3.953125,3.953125,803200,4.078125,4.046875,1.3853336572647095
09-05-1983,4.0,4.015625,553600,4.0625,4.054687976837158,1.3880077600479126
10-05-1983,4.03125,4.070312976837158,492800,4.070312976837158,4.03125,1.379984736442566
11-05-1983,4.0,4.039062976837158,252800,4.046875,4.023437976837158,1.3773106336593628
12-05-1983,3.96875,4.023437976837158,396800,4.03125,3.976562976837158,1.3612642288208008
13-05-1983,3.960937976837158,3.992187976837158,225600,3.992187976837158,3.984375,1.3639379739761353
16-05-1983,3.9375,3.96875,356800,4.0,4.0,1.3692876100540161
17-05-1983,3.976562976837158,4.0,288000,4.015625,4.015625,1.3746360540390015
18-05-1983,4.007812976837158,4.007812976837158,825600,4.140625,4.03125,1.379984736442566
19-05-1983,3.921875,3.984375,1417600,3.984375,3.953125,1.3532410860061646
20-05-1983,3.9375,3.953125,321600,4.007812976837158,4.007812976837158,1.3719611167907715
23-05-1983,4.007812976837158,4.015625,488000,4.0625,4.039062976837158,1.3826589584350586
24-05-1983,4.046875,4.046875,355200,4.117187976837158,4.117187976837158,1.4094034433364868
25-05-1983,4.078125,4.09375,580800,4.117187976837158,4.109375,1.4067285060882568
26-05-1983,4.078125,4.09375,1388800,4.25,4.203125,1.4388211965560913
27-05-1983,4.15625,4.203125,209600,4.203125,4.164062976837158,1.4254493713378906
31-05-1983,4.078125,4.164062976837158,601600,4.171875,4.09375,1.4013800621032715
01-06-1983,4.0625,4.0625,488000,4.101562976837158,4.101562976837158,1.4040535688400269
02-06-1983,3.984375,4.109375,366400,4.117187976837158,4.03125,1.379984736442566
03-06-1983,3.96875,4.015625,1065600,4.046875,4.03125,1.379984736442566
06-06-1983,4.054687976837158,4.0625,5444800,4.078125,4.070312976837158,1.3933568000793457
07-06-1983,4.03125,4.085937976837158,457600,4.085937976837158,4.046875,1.3853336572647095
08-06-1983,4.007812976837158,4.046875,444800,4.054687976837158,4.007812976837158,1.3719611167907715
09-06-1983,3.984375,4.015625,427200,4.023437976837158,4.007812976837158,1.3719611167907715
10-06-1983,4.015625,4.023437976837158,1878400,4.0625,4.0625,1.3906822204589844
13-06-1983,4.0625,4.0625,1062400,4.09375,4.078125,1.396030068397522
14-06-1983,4.078125,4.078125,272000,4.109375,4.109375,1.4067285060882568
15-06-1983,4.101562976837158,4.109375,592000,4.125,4.117187976837158,1.4094034433364868
16-06-1983,4.125,4.125,628800,4.15625,4.15625,1.4227747917175293
17-06-1983,4.125,4.15625,1081600,4.164062976837158,4.125,1.4120776653289795
20-06-1983,4.101562976837158,4.109375,222400,4.140625,4.117187976837158,1.4094034433364868
21-06-1983,4.046875,4.101562976837158,340800,4.117187976837158,4.09375,1.4013800621032715
22-06-1983,4.0625,4.085937976837158,435200,4.109375,4.09375,1.4013800621032715
23-06-1983,4.070312976837158,4.09375,145600,4.109375,4.070312976837158,1.3933568000793457
24-06-1983,4.0625,4.070312976837158,212800,4.09375,4.09375,1.4013800621032715
27-06-1983,4.0625,4.070312976837158,609600,4.085937976837158,4.078125,1.396030068397522
28-06-1983,4.046875,4.09375,428800,4.109375,4.046875,1.3853336572647095
29-06-1983,3.9375,4.039062976837158,1552000,4.039062976837158,3.9375,1.3478920459747314
30-06-1983,3.921875,3.9375,534400,3.984375,3.96875,1.3585891723632812
01-07-1983,3.953125,3.953125,947200,4.023437976837158,4.023437976837158,1.3773106336593628
05-07-1983,3.96875,4.007812976837158,155200,4.007812976837158,3.992187976837158,1.3666127920150757
06-07-1983,3.9375,3.96875,217600,3.992187976837158,3.984375,1.3639379739761353
07-07-1983,3.921875,3.984375,452800,3.984375,3.96875,1.3585891723632812
08-07-1983,3.960937976837158,3.96875,152000,3.984375,3.984375,1.3639379739761353
11-07-1983,3.976562976837158,3.984375,395200,3.992187976837158,3.976562976837158,1.3612642288208008
12-07-1983,3.90625,3.976562976837158,569600,3.976562976837158,3.90625,1.3371943235397339
13-07-1983,3.859375,3.890625,291200,3.921875,3.867187976837158,1.3238232135772705
14-07-1983,3.875,3.90625,419200,3.9375,3.898437976837158,1.3345205783843994
15-07-1983,3.8125,3.90625,329600,3.914062976837158,3.828125,1.3104501962661743
18-07-1983,3.78125,3.804687976837158,827200,3.828125,3.8125,1.3051015138626099
19-07-1983,3.796875,3.804687976837158,497600,3.820312976837158,3.8125,1.3051015138626099
20-07-1983,3.8125,3.8125,633600,3.875,3.875,1.326496958732605
21-07-1983,4.0,4.03125,681600,4.03125,4.0,1.3692876100540161
22-07-1983,4.015625,4.070312976837158,747200,4.125,4.125,1.4120776653289795
25-07-1983,4.148437976837158,4.148437976837158,441600,4.210937976837158,4.210937976837158,1.4414957761764526
26-07-1983,4.21875,4.21875,814400,4.3125,4.3125,1.4762624502182007
27-07-1983,4.1875,4.3125,531200,4.3125,4.195312976837158,1.43614661693573
28-07-1983,4.0625,4.203125,384000,4.210937976837158,4.085937976837158,1.398705244064331
29-07-1983,3.953125,4.03125,771200,4.054687976837158,3.992187976837158,1.3666127920150757
01-08-1983,3.867187976837158,3.90625,1000000,3.921875,3.914062976837158,1.3398693799972534
02-08-1983,3.90625,3.9375,254400,3.953125,3.914062976837158,1.3398693799972534
03-08-1983,3.84375,3.890625,656000,3.90625,3.875,1.326496958732605
04-08-1983,3.65625,3.796875,812800,3.84375,3.710937976837158,1.2835845947265625
05-08-1983,3.6875,3.6875,881600,3.757812976837158,3.734375,1.2916914224624634
08-08-1983,3.703125,3.703125,472000,3.828125,3.734375,1.2916914224624634
09-08-1983,3.65625,3.765625,2072000,3.765625,3.671875,1.2700728178024292
10-08-1983,3.5,3.640625,1752000,3.640625,3.53125,1.2214313745498657
11-08-1983,3.5,3.53125,923200,3.609375,3.5625,1.2322410345077515
12-08-1983,3.578125,3.59375,320000,3.65625,3.632812976837158,1.25656259059906
15-08-1983,3.664062976837158,3.664062976837158,304000,3.765625,3.75,1.2970958948135376
16-08-1983,3.632812976837158,3.75,900800,3.75,3.671875,1.2700728178024292
17-08-1983,3.65625,3.65625,868800,3.75,3.734375,1.2916914224624634
18-08-1983,3.703125,3.765625,305600,3.796875,3.710937976837158,1.2835845947265625
19-08-1983,3.703125,3.71875,187200,3.742187976837158,3.734375,1.2916914224624634
22-08-1983,3.734375,3.742187976837158,1060800,3.8125,3.742187976837158,1.2943933010101318
23-08-1983,3.75,3.773437976837158,288000,3.8125,3.789062976837158,1.3106082677841187
24-08-1983,3.726562976837158,3.765625,225600,3.765625,3.734375,1.2916914224624634
25-08-1983,3.710937976837158,3.71875,550400,3.8125,3.804687976837158,1.3160117864608765
26-08-1983,3.8125,3.8125,433600,3.90625,3.90625,1.3511418104171753
29-08-1983,3.882812976837158,3.921875,259200,3.960937976837158,3.945312976837158,1.3646527528762817
30-08-1983,3.953125,3.953125,1729600,4.070312976837158,4.0,1.3835692405700684
31-08-1983,3.96875,3.96875,924800,3.984375,3.984375,1.378164291381836
01-09-1983,3.96875,3.96875,502400,4.0625,4.046875,1.399782657623291
02-09-1983,4.046875,4.0625,310400,4.125,4.125,1.4268051385879517
06-09-1983,4.15625,4.171875,457600,4.203125,4.1875,1.4484245777130127
07-09-1983,4.21875,4.21875,1228800,4.335937976837158,4.335937976837158,1.4997670650482178
08-09-1983,4.320312976837158,4.34375,628800,4.375,4.359375,1.507874608039856
09-09-1983,4.28125,4.359375,2353600,4.375,4.28125,1.4808508157730103
12-09-1983,4.25,4.296875,604800,4.375,4.257812976837158,1.4727450609207153
13-09-1983,4.125,4.265625,381600,4.265625,4.1875,1.4484245777130127
14-09-1983,4.15625,4.21875,126400,4.21875,4.203125,1.4538288116455078
15-09-1983,4.1875,4.203125,356800,4.21875,4.21875,1.4592335224151611
16-09-1983,4.0625,4.1875,581600,4.1875,4.09375,1.415996789932251
19-09-1983,4.09375,4.125,172800,4.21875,4.171875,1.4430184364318848
20-09-1983,4.140625,4.140625,395200,4.25,4.25,1.4700419902801514
21-09-1983,4.203125,4.25,999200,4.46875,4.46875,1.5457044839859009
22-09-1983,4.375,4.46875,1304000,4.46875,4.4375,1.5348970890045166
23-09-1983,4.40625,4.421875,452800,4.546875,4.546875,1.5727295875549316
26-09-1983,4.46875,4.546875,338400,4.578125,4.484375,1.5511101484298706
27-09-1983,4.4375,4.5,402400,4.53125,4.5,1.5565154552459717
28-09-1983,4.453125,4.46875,150400,4.53125,4.453125,1.5403012037277222
29-09-1983,4.34375,4.4375,211200,4.5,4.34375,1.5024696588516235
30-09-1983,4.09375,4.28125,1076800,4.28125,4.109375,1.4214009046554565
03-10-1983,4.015625,4.109375,313600,4.109375,4.109375,1.4214009046554565
04-10-1983,4.078125,4.078125,366400,4.265625,4.234375,1.4646377563476562
05-10-1983,4.15625,4.1875,376000,4.25,4.25,1.4700419902801514
06-10-1983,4.21875,4.25,899200,4.390625,4.34375,1.5024696588516235
07-10-1983,4.5625,4.5625,759200,4.625,4.609375,1.5943467617034912
10-10-1983,4.515625,4.5625,546400,4.5625,4.515625,1.5619196891784668
11-10-1983,4.5,4.5625,453600,4.59375,4.5,1.5565154552459717
12-10-1983,4.46875,4.5,406400,4.578125,4.5625,1.5781331062316895
13-10-1983,4.5625,4.625,558400,4.65625,4.578125,1.5835378170013428
14-10-1983,4.515625,4.5625,148000,4.609375,4.546875,1.5727295875549316
17-10-1983,4.375,4.53125,324000,4.53125,4.40625,1.5240875482559204
18-10-1983,4.375,4.515625,324000,4.53125,4.40625,1.5240875482559204
19-10-1983,4.375,4.421875,2216000,4.5625,4.40625,1.5240875482559204
20-10-1983,4.40625,4.4375,604800,4.53125,4.46875,1.5457044839859009
21-10-1983,4.453125,4.453125,1336000,4.5625,4.53125,1.5673242807388306
24-10-1983,4.5,4.53125,313600,4.578125,4.5625,1.5781331062316895
25-10-1983,4.53125,4.5625,668800,4.59375,4.546875,1.5727295875549316
26-10-1983,4.453125,4.546875,351200,4.578125,4.515625,1.5619196891784668
27-10-1983,4.484375,4.5,41600,4.5625,4.484375,1.5511101484298706
28-10-1983,4.484375,4.484375,607200,4.53125,4.5,1.5565154552459717
31-10-1983,4.515625,4.53125,478400,4.59375,4.5625,1.5781331062316895
01-11-1983,4.4375,4.578125,793600,4.578125,4.46875,1.5457044839859009
02-11-1983,4.453125,4.46875,877600,4.5625,4.546875,1.5727295875549316
03-11-1983,4.453125,4.53125,236000,4.53125,4.46875,1.5594234466552734
04-11-1983,4.34375,4.375,336800,4.453125,4.34375,1.5158040523529053
07-11-1983,4.25,4.375,408000,4.40625,4.28125,1.493993878364563
08-11-1983,4.203125,4.28125,435200,4.28125,4.203125,1.4667317867279053
09-11-1983,4.203125,4.234375,176800,4.28125,4.25,1.4830893278121948
10-11-1983,4.1875,4.25,495200,4.28125,4.203125,1.4667317867279053
11-11-1983,4.21875,4.234375,1606400,4.3125,4.3125,1.504899024963379
14-11-1983,4.328125,4.328125,616000,4.4375,4.375,1.5267095565795898
15-11-1983,4.34375,4.359375,920800,4.390625,4.34375,1.5158040523529053
16-11-1983,4.296875,4.3125,454400,4.40625,4.40625,1.537614107131958
17-11-1983,4.359375,4.359375,792000,4.421875,4.390625,1.5321625471115112
18-11-1983,4.328125,4.359375,531200,4.390625,4.390625,1.5321625471115112
21-11-1983,4.375,4.421875,281600,4.4375,4.40625,1.537614107131958
22-11-1983,4.40625,4.4375,636800,4.5625,4.53125,1.5812348127365112
23-11-1983,4.546875,4.546875,619200,4.65625,4.578125,1.5975924730300903
25-11-1983,4.59375,4.625,273600,4.625,4.59375,1.603044033050537
28-11-1983,4.53125,4.59375,770400,4.625,4.5625,1.5921399593353271
29-11-1983,4.4375,4.5625,1019200,4.5625,4.4375,1.5485197305679321
30-11-1983,4.46875,4.5,844000,4.546875,4.515625,1.5757818222045898
01-12-1983,4.484375,4.484375,309600,4.546875,4.5,1.5703301429748535
02-12-1983,4.46875,4.46875,124800,4.5625,4.546875,1.5866873264312744
05-12-1983,4.4375,4.515625,754400,4.515625,4.5,1.5703301429748535
06-12-1983,4.46875,4.515625,184000,4.515625,4.46875,1.5594234466552734
07-12-1983,4.4375,4.4375,735200,4.5,4.4375,1.5485197305679321
08-12-1983,4.40625,4.46875,628800,4.46875,4.4375,1.5485197305679321
09-12-1983,4.40625,4.40625,500000,4.453125,4.4375,1.5485197305679321
12-12-1983,4.390625,4.390625,120000,4.4375,4.390625,1.5321625471115112
13-12-1983,4.375,4.40625,100000,4.453125,4.40625,1.537614107131958
14-12-1983,4.34375,4.375,1194400,4.40625,4.34375,1.5158040523529053
15-12-1983,4.25,4.25,192800,4.3125,4.265625,1.4885414838790894
16-12-1983,4.1875,4.265625,640800,4.28125,4.234375,1.4776368141174316
19-12-1983,4.203125,4.203125,1264000,4.375,4.296875,1.4994467496871948
20-12-1983,4.28125,4.28125,405600,4.375,4.296875,1.4994467496871948
21-12-1983,4.21875,4.296875,792800,4.3125,4.3125,1.504899024963379
22-12-1983,4.25,4.3125,403200,4.34375,4.25,1.4830893278121948
23-12-1983,4.203125,4.203125,127200,4.25,4.21875,1.4721843004226685
27-12-1983,4.234375,4.234375,384800,4.328125,4.328125,1.5103508234024048
28-12-1983,4.25,4.3125,1399200,4.328125,4.296875,1.4994467496871948
29-12-1983,4.296875,4.3125,188800,4.4375,4.4375,1.5485197305679321
30-12-1983,4.34375,4.46875,563200,4.46875,4.359375,1.5212568044662476
03-01-1984,4.328125,4.328125,460000,4.453125,4.34375,1.5158040523529053
04-01-1984,4.3125,4.328125,1320800,4.375,4.34375,1.5158040523529053
05-01-1984,4.34375,4.375,1296000,4.609375,4.5625,1.5921399593353271
06-01-1984,4.53125,4.59375,693600,4.625,4.59375,1.603044033050537
09-01-1984,4.578125,4.59375,900800,4.75,4.671875,1.630307674407959
10-01-1984,4.578125,4.703125,532000,4.71875,4.578125,1.5975924730300903
11-01-1984,4.5,4.5625,502400,4.609375,4.578125,1.5975924730300903
12-01-1984,4.46875,4.53125,204000,4.5625,4.5,1.5703301429748535
13-01-1984,4.3125,4.4375,294400,4.4375,4.375,1.5267095565795898
16-01-1984,4.3125,4.34375,391200,4.421875,4.421875,1.543067455291748
17-01-1984,4.375,4.421875,351200,4.4375,4.421875,1.543067455291748
18-01-1984,4.34375,4.421875,552800,4.4375,4.375,1.5267095565795898
19-01-1984,4.40625,4.40625,529600,4.46875,4.4375,1.5485197305679321
20-01-1984,4.453125,4.484375,268000,4.484375,4.453125,1.5539721250534058
23-01-1984,4.296875,4.4375,2306400,4.4375,4.296875,1.4994467496871948
24-01-1984,4.21875,4.296875,504800,4.328125,4.21875,1.4721843004226685
25-01-1984,4.1875,4.25,560800,4.296875,4.21875,1.4721843004226685
26-01-1984,4.0625,4.15625,846400,4.1875,4.15625,1.4503740072250366
27-01-1984,4.09375,4.125,588800,4.1875,4.125,1.4394689798355103
30-01-1984,3.96875,4.078125,643200,4.078125,4.0,1.395849347114563
31-01-1984,3.96875,4.0,533600,4.09375,4.0,1.395849347114563
01-02-1984,3.8125,4.0,642400,4.0625,3.96875,1.3849430084228516
02-02-1984,3.859375,3.921875,502400,3.953125,3.875,1.3522285223007202
03-02-1984,3.90625,3.90625,748800,4.0,3.9375,1.3740378618240356
06-02-1984,3.859375,3.890625,1136800,3.96875,3.9375,1.3740378618240356
07-02-1984,3.875,3.921875,891200,3.953125,3.953125,1.3794912099838257
08-02-1984,3.921875,4.03125,405600,4.0625,3.9375,1.3740378618240356
09-02-1984,3.8125,3.921875,765600,3.96875,3.84375,1.3413232564926147
10-02-1984,3.71875,3.84375,756000,3.875,3.78125,1.319512963294983
13-02-1984,3.71875,3.796875,352000,3.796875,3.765625,1.3140597343444824
14-02-1984,3.625,3.78125,989600,3.78125,3.75,1.322657585144043
15-02-1984,3.59375,3.75,422400,3.75,3.625,1.278569221496582
16-02-1984,3.546875,3.671875,396800,3.6875,3.625,1.278569221496582
17-02-1984,3.421875,3.625,993600,3.640625,3.46875,1.2234585285186768
21-02-1984,3.4375,3.484375,616000,3.5,3.484375,1.2289695739746094
22-02-1984,3.4375,3.484375,3064800,3.609375,3.578125,1.2620363235473633
23-02-1984,3.4375,3.578125,684000,3.578125,3.546875,1.2510148286819458
24-02-1984,3.53125,3.5625,696000,3.625,3.59375,1.2675468921661377
27-02-1984,3.640625,3.671875,732800,3.8125,3.78125,1.3336797952651978
28-02-1984,3.625,3.78125,644800,3.78125,3.65625,1.2895922660827637
29-02-1984,3.65625,3.65625,277600,3.796875,3.734375,1.3171473741531372
01-03-1984,3.6875,3.75,355200,3.8125,3.78125,1.3336797952651978
02-03-1984,3.6875,3.75,1381600,3.8125,3.78125,1.3336797952651978
05-03-1984,3.71875,3.8125,566400,3.90625,3.71875,1.3116363286972046
06-03-1984,3.71875,3.75,408800,3.8125,3.765625,1.3281680345535278
07-03-1984,3.6875,3.71875,195200,3.8125,3.75,1.322657585144043
08-03-1984,3.65625,3.734375,291200,3.765625,3.71875,1.3116363286972046
09-03-1984,3.65625,3.75,484000,3.75,3.65625,1.2895922660827637
12-03-1984,3.671875,3.671875,291200,3.796875,3.75,1.322657585144043
13-03-1984,3.78125,3.78125,470400,3.875,3.8125,1.344701886177063
14-03-1984,3.78125,3.8125,1076000,3.859375,3.8125,1.344701886177063
15-03-1984,3.78125,3.8125,289600,3.859375,3.8125,1.344701886177063
16-03-1984,3.890625,3.90625,772000,3.9375,3.921875,1.38327956199646
19-03-1984,3.8125,3.890625,313600,3.890625,3.859375,1.3612353801727295
20-03-1984,3.796875,3.828125,220800,3.859375,3.859375,1.3612353801727295
21-03-1984,3.828125,3.828125,252800,3.9375,3.875,1.3667466640472412
22-03-1984,3.78125,3.90625,209600,3.90625,3.828125,1.350212574005127
23-03-1984,3.75,3.8125,304800,3.84375,3.78125,1.3336797952651978
26-03-1984,3.75,3.78125,122400,3.8125,3.796875,1.3391914367675781
27-03-1984,3.75,3.765625,103200,3.8125,3.796875,1.3391914367675781
28-03-1984,3.78125,3.796875,248800,3.828125,3.8125,1.344701886177063
29-03-1984,3.765625,3.828125,260800,3.828125,3.796875,1.3391914367675781
30-03-1984,3.71875,3.796875,354400,3.8125,3.796875,1.3391914367675781
02-04-1984,3.640625,3.765625,433600,3.796875,3.640625,1.2840805053710938
03-04-1984,3.625,3.640625,559200,3.71875,3.6875,1.3006136417388916
04-04-1984,3.65625,3.65625,249600,3.71875,3.703125,1.3061243295669556
05-04-1984,3.65625,3.703125,140800,3.71875,3.703125,1.3061243295669556
06-04-1984,3.640625,3.671875,188000,3.6875,3.65625,1.2895922660827637
09-04-1984,3.5,3.6875,860800,3.71875,3.515625,1.239991545677185
10-04-1984,3.453125,3.5,480800,3.53125,3.453125,1.2179476022720337
11-04-1984,3.390625,3.4375,2084800,3.453125,3.4375,1.212436318397522
12-04-1984,3.484375,3.484375,885600,3.578125,3.546875,1.2510148286819458
13-04-1984,3.4375,3.578125,2246400,3.59375,3.484375,1.2289695739746094
16-04-1984,3.421875,3.5,888800,3.5,3.46875,1.2234585285186768
17-04-1984,3.484375,3.5,1244800,3.546875,3.5,1.2344813346862793
18-04-1984,3.5,3.515625,1323200,3.53125,3.515625,1.239991545677185
19-04-1984,3.5,3.53125,290400,3.578125,3.5625,1.2565245628356934
23-04-1984,3.546875,3.59375,242400,3.609375,3.5625,1.2565245628356934
24-04-1984,3.484375,3.53125,612800,3.609375,3.5,1.2344813346862793
25-04-1984,3.515625,3.53125,840800,3.59375,3.5625,1.2565245628356934
26-04-1984,3.59375,3.59375,1172800,3.75,3.703125,1.3061243295669556
27-04-1984,3.703125,3.734375,596800,3.8125,3.75,1.322657585144043
30-04-1984,3.703125,3.75,315200,3.796875,3.78125,1.3336797952651978
01-05-1984,3.78125,3.796875,473600,3.84375,3.84375,1.3557243347167969
02-05-1984,3.78125,3.859375,392800,3.875,3.859375,1.3612353801727295
03-05-1984,3.78125,3.890625,353600,3.890625,3.828125,1.350212574005127
04-05-1984,3.59375,3.78125,682400,3.796875,3.65625,1.3049322366714478
07-05-1984,3.65625,3.71875,988000,3.75,3.75,1.3383904695510864
08-05-1984,3.71875,3.75,811200,3.828125,3.8125,1.3606972694396973
09-05-1984,3.765625,3.8125,752000,3.875,3.78125,1.3495436906814575
10-05-1984,3.734375,3.78125,208800,3.78125,3.78125,1.3495436906814575
11-05-1984,3.5625,3.78125,575200,3.78125,3.703125,1.3216603994369507
14-05-1984,3.578125,3.71875,273600,3.71875,3.625,1.2937778234481812
15-05-1984,3.5625,3.625,702400,3.640625,3.578125,1.277048110961914
16-05-1984,3.453125,3.5625,1334400,3.5625,3.5625,1.2714710235595703
17-05-1984,3.46875,3.53125,1342400,3.5625,3.46875,1.2380112409591675
18-05-1984,3.40625,3.453125,908800,3.5,3.421875,1.2212820053100586
21-05-1984,3.390625,3.40625,536800,3.46875,3.421875,1.2212820053100586
22-05-1984,3.28125,3.421875,1011200,3.421875,3.34375,1.193397879600525
23-05-1984,3.34375,3.359375,583200,3.421875,3.390625,1.210127830505371
24-05-1984,3.296875,3.375,1495200,3.40625,3.34375,1.193397879600525
25-05-1984,3.28125,3.375,728000,3.40625,3.3125,1.1822452545166016
29-05-1984,3.1875,3.34375,768000,3.359375,3.25,1.159937858581543
30-05-1984,3.125,3.28125,3813600,3.28125,3.15625,1.1264792680740356
31-05-1984,3.09375,3.109375,1299200,3.171875,3.125,1.1153260469436646
01-06-1984,3.171875,3.1875,1281600,3.234375,3.203125,1.1432089805603027
04-06-1984,3.21875,3.21875,2139200,3.46875,3.375,1.2045512199401855
05-06-1984,3.28125,3.40625,825600,3.40625,3.34375,1.193397879600525
06-06-1984,3.40625,3.40625,440000,3.46875,3.46875,1.2380112409591675
07-06-1984,3.46875,3.46875,6442400,3.515625,3.515625,1.2547411918640137
08-06-1984,3.484375,3.53125,396800,3.546875,3.53125,1.2603175640106201
11-06-1984,3.515625,3.5625,323200,3.5625,3.53125,1.2603175640106201
12-06-1984,3.453125,3.484375,284000,3.5,3.5,1.2491655349731445
13-06-1984,3.484375,3.5,260800,3.53125,3.515625,1.2547411918640137
14-06-1984,3.421875,3.5,861600,3.515625,3.453125,1.232434868812561
15-06-1984,3.375,3.453125,334400,3.484375,3.40625,1.2157047986984253
18-06-1984,3.375,3.375,472000,3.484375,3.46875,1.2380112409591675
19-06-1984,3.4375,3.5,385600,3.5,3.484375,1.2435880899429321
20-06-1984,3.375,3.453125,2826400,3.46875,3.46875,1.2380112409591675
21-06-1984,3.421875,3.46875,983200,3.46875,3.453125,1.232434868812561
22-06-1984,3.390625,3.453125,839200,3.453125,3.453125,1.232434868812561
25-06-1984,3.453125,3.484375,1771200,3.515625,3.46875,1.2380112409591675
26-06-1984,3.46875,3.5,2021600,3.546875,3.46875,1.2380112409591675
27-06-1984,3.375,3.4375,542400,3.46875,3.4375,1.2268579006195068
28-06-1984,3.390625,3.4375,572000,3.4375,3.4375,1.2268579006195068
29-06-1984,3.4375,3.4375,1027200,3.484375,3.484375,1.2435880899429321
02-07-1984,3.453125,3.53125,511200,3.53125,3.484375,1.2435880899429321
03-07-1984,3.46875,3.5,676000,3.59375,3.5625,1.2714710235595703
05-07-1984,3.5,3.5625,293600,3.578125,3.546875,1.2658954858779907
06-07-1984,3.484375,3.53125,331200,3.65625,3.546875,1.2658954858779907
09-07-1984,3.578125,3.59375,264000,3.625,3.625,1.2937778234481812
10-07-1984,3.65625,3.65625,552800,3.78125,3.71875,1.327237844467163
11-07-1984,3.65625,3.71875,184000,3.75,3.6875,1.3160840272903442
12-07-1984,3.5625,3.625,382400,3.6875,3.625,1.2937778234481812
13-07-1984,3.546875,3.65625,687200,3.6875,3.609375,1.288201093673706
16-07-1984,3.546875,3.609375,436000,3.65625,3.625,1.2937778234481812
17-07-1984,3.609375,3.625,928800,3.6875,3.65625,1.3049322366714478
18-07-1984,3.53125,3.65625,272800,3.65625,3.625,1.2937778234481812
19-07-1984,3.46875,3.625,314400,3.625,3.5,1.2491655349731445
20-07-1984,3.53125,3.53125,136000,3.625,3.59375,1.2826242446899414
23-07-1984,3.53125,3.59375,532000,3.59375,3.546875,1.2658954858779907
24-07-1984,3.53125,3.546875,476800,3.59375,3.546875,1.2658954858779907
25-07-1984,3.515625,3.546875,224800,3.578125,3.546875,1.2658954858779907
26-07-1984,3.5,3.578125,936800,3.578125,3.53125,1.2603175640106201
27-07-1984,3.46875,3.5,457600,3.625,3.53125,1.2603175640106201
30-07-1984,3.46875,3.546875,628000,3.609375,3.5,1.2491655349731445
31-07-1984,3.40625,3.484375,531200,3.53125,3.453125,1.232434868812561
01-08-1984,3.484375,3.484375,1785600,3.734375,3.625,1.2937778234481812
02-08-1984,3.625,3.625,1441600,3.75,3.75,1.3383904695510864
03-08-1984,3.828125,3.875,1789600,3.9375,3.875,1.383003830909729
06-08-1984,3.8125,3.859375,2960800,3.9375,3.9375,1.4218218326568604
07-08-1984,3.890625,3.90625,716000,4.046875,3.984375,1.4387484788894653
08-08-1984,3.9375,3.984375,592000,4.0,3.9375,1.4218218326568604
09-08-1984,3.875,3.9375,1179200,4.125,4.109375,1.4838849306106567
10-08-1984,4.09375,4.09375,1677600,4.234375,4.1875,1.5120971202850342
13-08-1984,4.0625,4.15625,1063200,4.1875,4.078125,1.472601294517517
14-08-1984,4.09375,4.15625,637600,4.15625,4.09375,1.4782437086105347
15-08-1984,3.96875,4.03125,536000,4.109375,4.078125,1.472601294517517
16-08-1984,4.046875,4.046875,495200,4.15625,4.09375,1.4782437086105347
17-08-1984,4.09375,4.125,474400,4.15625,4.109375,1.4838849306106567
20-08-1984,4.09375,4.09375,893600,4.1875,4.1875,1.5120971202850342
21-08-1984,4.15625,4.21875,700000,4.28125,4.234375,1.5290226936340332
22-08-1984,4.125,4.234375,1062400,4.234375,4.21875,1.523380994796753
23-08-1984,4.171875,4.1875,199200,4.21875,4.1875,1.5120971202850342
24-08-1984,4.1875,4.1875,376800,4.3125,4.296875,1.5515912771224976
27-08-1984,4.21875,4.3125,188800,4.3125,4.28125,1.5459493398666382
28-08-1984,4.21875,4.25,974400,4.296875,4.234375,1.5290226936340332
29-08-1984,4.171875,4.25,725600,4.28125,4.1875,1.5120971202850342
30-08-1984,4.140625,4.15625,276000,4.203125,4.15625,1.500810980796814
31-08-1984,4.09375,4.125,365600,4.1875,4.1875,1.5120971202850342
04-09-1984,4.140625,4.15625,382400,4.171875,4.171875,1.5064541101455688
05-09-1984,4.078125,4.140625,368000,4.171875,4.140625,1.4951703548431396
06-09-1984,4.171875,4.171875,220000,4.203125,4.1875,1.5120971202850342
07-09-1984,4.15625,4.234375,332000,4.25,4.1875,1.5120971202850342
10-09-1984,4.140625,4.15625,212800,4.21875,4.1875,1.5120971202850342
11-09-1984,4.21875,4.21875,533600,4.28125,4.25,1.5346648693084717
12-09-1984,4.1875,4.21875,748800,4.25,4.21875,1.523380994796753
13-09-1984,4.1875,4.1875,1043200,4.34375,4.34375,1.5685175657272339
14-09-1984,4.296875,4.359375,648800,4.375,4.34375,1.5685175657272339
17-09-1984,4.3125,4.3125,676800,4.40625,4.40625,1.5910862684249878
18-09-1984,4.40625,4.421875,744800,4.484375,4.484375,1.6192961931228638
19-09-1984,4.421875,4.453125,767200,4.515625,4.4375,1.602369785308838
20-09-1984,4.40625,4.40625,536800,4.484375,4.46875,1.6136541366577148
21-09-1984,4.4375,4.4375,721600,4.484375,4.4375,1.602369785308838
24-09-1984,4.40625,4.421875,444000,4.484375,4.46875,1.6136541366577148
25-09-1984,4.375,4.453125,1692000,4.453125,4.421875,1.5967283248901367
26-09-1984,4.359375,4.40625,603200,4.46875,4.359375,1.5741602182388306
27-09-1984,4.28125,4.390625,757600,4.40625,4.375,1.5798022747039795
28-09-1984,4.15625,4.265625,817600,4.265625,4.21875,1.523380994796753
01-10-1984,4.171875,4.1875,296800,4.25,4.21875,1.523380994796753
02-10-1984,4.171875,4.203125,294400,4.28125,4.171875,1.5064541101455688
03-10-1984,4.0,4.140625,1790400,4.1875,4.03125,1.455674648284912
04-10-1984,4.03125,4.03125,644000,4.09375,4.09375,1.4782437086105347
05-10-1984,4.125,4.125,310400,4.21875,4.171875,1.5064541101455688
08-10-1984,4.078125,4.15625,121600,4.171875,4.109375,1.4838849306106567
09-10-1984,4.09375,4.109375,1056000,4.15625,4.140625,1.4951703548431396
10-10-1984,4.03125,4.140625,262400,4.15625,4.15625,1.500810980796814
11-10-1984,4.140625,4.140625,126400,4.21875,4.21875,1.523380994796753
12-10-1984,4.1875,4.1875,442400,4.328125,4.296875,1.5515912771224976
15-10-1984,4.28125,4.3125,1718400,4.390625,4.34375,1.5685175657272339
16-10-1984,4.1875,4.328125,244000,4.34375,4.21875,1.523380994796753
17-10-1984,4.1875,4.21875,328800,4.28125,4.25,1.5346648693084717
18-10-1984,4.21875,4.21875,368000,4.34375,4.34375,1.5685175657272339
19-10-1984,4.34375,4.34375,1361600,4.5625,4.421875,1.5967283248901367
22-10-1984,4.375,4.421875,663200,4.421875,4.375,1.5798022747039795
23-10-1984,4.3125,4.34375,997600,4.375,4.34375,1.5685175657272339
24-10-1984,4.328125,4.328125,234400,4.4375,4.390625,1.5854440927505493
25-10-1984,4.328125,4.375,1270400,4.390625,4.34375,1.5685175657272339
26-10-1984,4.234375,4.3125,825600,4.34375,4.28125,1.5459493398666382
29-10-1984,4.25,4.265625,343200,4.28125,4.25,1.5346648693084717
30-10-1984,4.21875,4.25,420000,4.359375,4.328125,1.562875747680664
31-10-1984,4.28125,4.28125,791200,4.3125,4.296875,1.5515912771224976
01-11-1984,4.09375,4.125,859200,4.15625,4.125,1.4895275831222534
02-11-1984,4.0625,4.078125,1601600,4.171875,4.140625,1.5116610527038574
05-11-1984,4.109375,4.125,407200,4.203125,4.203125,1.5344784259796143
06-11-1984,4.21875,4.21875,916000,4.296875,4.296875,1.568704605102539
07-11-1984,4.234375,4.28125,539200,4.296875,4.28125,1.5630004405975342
08-11-1984,4.25,4.28125,999200,4.296875,4.28125,1.5630004405975342
09-11-1984,4.234375,4.296875,480000,4.3125,4.28125,1.5630004405975342
12-11-1984,4.265625,4.265625,361600,4.3125,4.296875,1.568704605102539
13-11-1984,4.234375,4.265625,615200,4.296875,4.28125,1.5630004405975342
14-11-1984,4.25,4.265625,357600,4.328125,4.3125,1.574408769607544
15-11-1984,4.28125,4.3125,764000,4.3125,4.3125,1.574408769607544
16-11-1984,4.28125,4.3125,492000,4.359375,4.328125,1.580113410949707
19-11-1984,4.28125,4.296875,768000,4.375,4.3125,1.574408769607544
20-11-1984,4.21875,4.265625,313600,4.296875,4.25,1.5515910387039185
21-11-1984,4.21875,4.28125,612800,4.28125,4.25,1.5515910387039185
23-11-1984,4.21875,4.234375,168000,4.28125,4.25,1.5515910387039185
26-11-1984,4.203125,4.25,520800,4.25,4.234375,1.5458871126174927
27-11-1984,4.171875,4.203125,790400,4.234375,4.203125,1.5344784259796143
28-11-1984,4.125,4.1875,481600,4.1875,4.140625,1.5116610527038574
29-11-1984,4.03125,4.109375,733600,4.125,4.078125,1.488843321800232
30-11-1984,4.078125,4.125,350400,4.1875,4.109375,1.5002515316009521
03-12-1984,4.0625,4.078125,244800,4.125,4.078125,1.488843321800232
04-12-1984,4.078125,4.078125,598400,4.1875,4.15625,1.5173637866973877
05-12-1984,4.0625,4.125,287200,4.125,4.09375,1.4945470094680786
06-12-1984,4.078125,4.09375,384800,4.171875,4.140625,1.5116610527038574
07-12-1984,4.09375,4.09375,342400,4.140625,4.125,1.5059559345245361
10-12-1984,4.125,4.125,331200,4.171875,4.140625,1.5116610527038574
11-12-1984,4.125,4.125,416000,4.1875,4.140625,1.5116610527038574
12-12-1984,4.125,4.125,872800,4.15625,4.140625,1.5116610527038574
13-12-1984,4.09375,4.125,420000,4.15625,4.109375,1.5002515316009521
14-12-1984,4.0625,4.078125,412000,4.125,4.09375,1.4945470094680786
17-12-1984,4.0,4.125,1825600,4.125,4.0625,1.4831387996673584
18-12-1984,4.09375,4.09375,884000,4.171875,4.171875,1.523068904876709
19-12-1984,4.15625,4.15625,755200,4.21875,4.15625,1.5173637866973877
20-12-1984,4.125,4.203125,779200,4.21875,4.125,1.5059559345245361
21-12-1984,3.9375,4.09375,1142400,4.15625,4.046875,1.4774342775344849
24-12-1984,4.046875,4.078125,260800,4.125,4.109375,1.5002515316009521
26-12-1984,4.03125,4.109375,103200,4.109375,4.046875,1.4774342775344849
27-12-1984,4.046875,4.078125,1440800,4.09375,4.0625,1.4831387996673584
28-12-1984,4.0,4.03125,319200,4.0625,4.046875,1.4774342775344849
31-12-1984,4.046875,4.078125,479200,4.171875,4.109375,1.5002515316009521
02-01-1985,4.109375,4.109375,910400,4.203125,4.15625,1.5173637866973877
03-01-1985,4.125,4.15625,364800,4.171875,4.15625,1.5173637866973877
04-01-1985,4.125,4.140625,332800,4.171875,4.125,1.5059559345245361
07-01-1985,4.140625,4.171875,1047200,4.21875,4.171875,1.523068904876709
08-01-1985,4.15625,4.171875,320800,4.203125,4.1875,1.5287747383117676
09-01-1985,4.1875,4.21875,337600,4.21875,4.21875,1.5401825904846191
10-01-1985,4.203125,4.21875,1797600,4.296875,4.296875,1.568704605102539
11-01-1985,4.234375,4.296875,1031200,4.3125,4.28125,1.5630004405975342
14-01-1985,4.25,4.25,2920800,4.328125,4.328125,1.580113410949707
15-01-1985,4.296875,4.328125,5229600,4.4375,4.40625,1.6086348295211792
16-01-1985,4.40625,4.5,13840000,4.5625,4.515625,1.6485651731491089
17-01-1985,4.484375,4.515625,1127200,4.515625,4.5,1.6428613662719727
18-01-1985,4.515625,4.53125,2415200,4.578125,4.546875,1.6599748134613037
21-01-1985,4.53125,4.53125,1831200,4.71875,4.71875,1.7227228879928589
22-01-1985,4.71875,4.734375,2558400,4.859375,4.734375,1.7284271717071533
23-01-1985,4.71875,4.75,644800,4.796875,4.765625,1.739836573600769
24-01-1985,4.71875,4.734375,940800,4.796875,4.734375,1.7284271717071533
25-01-1985,4.71875,4.71875,966400,4.921875,4.921875,1.7968791723251343
28-01-1985,4.859375,4.875,801600,5.0,5.0,1.825401782989502
29-01-1985,4.875,4.921875,579200,4.96875,4.96875,1.8139926195144653
30-01-1985,4.890625,4.984375,1524000,4.984375,4.96875,1.8139926195144653
31-01-1985,4.78125,4.875,620800,4.90625,4.84375,1.7683582305908203
01-02-1985,4.78125,4.8125,423200,4.84375,4.78125,1.745540738105774
04-02-1985,4.765625,4.765625,1716000,4.828125,4.8125,1.7569482326507568
05-02-1985,4.75,4.8125,636800,4.828125,4.78125,1.745540738105774
06-02-1985,4.65625,4.765625,1779200,4.8125,4.703125,1.7170194387435913
07-02-1985,4.6875,4.703125,568000,4.78125,4.78125,1.745540738105774
08-02-1985,4.75,4.78125,959200,4.859375,4.859375,1.7740615606307983
11-02-1985,4.78125,4.8125,571200,4.8125,4.796875,1.7694507837295532
12-02-1985,4.71875,4.765625,586400,4.796875,4.734375,1.7463966608047485
13-02-1985,4.6875,4.71875,432000,4.75,4.734375,1.7463966608047485
14-02-1985,4.65625,4.734375,1396800,4.734375,4.6875,1.7291053533554077
15-02-1985,4.625,4.65625,1879200,4.65625,4.625,1.7060502767562866
19-02-1985,4.609375,4.6875,924800,4.6875,4.609375,1.7002867460250854
20-02-1985,4.578125,4.609375,1586400,4.625,4.59375,1.6945230960845947
21-02-1985,4.546875,4.59375,1268000,4.59375,4.578125,1.688759207725525
22-02-1985,4.546875,4.5625,1045600,4.609375,4.59375,1.6945230960845947
25-02-1985,4.609375,4.609375,356800,4.609375,4.609375,1.7002867460250854
26-02-1985,4.59375,4.609375,665600,4.65625,4.640625,1.7118144035339355
27-02-1985,4.625,4.625,451200,4.6875,4.65625,1.7175782918930054
28-02-1985,4.671875,4.6875,763200,4.71875,4.71875,1.7406328916549683
01-03-1985,4.71875,4.75,774400,4.859375,4.828125,1.7809785604476929
04-03-1985,4.734375,4.796875,907200,4.8125,4.765625,1.7579244375228882
05-03-1985,4.71875,4.796875,940000,4.84375,4.75,1.7521612644195557
06-03-1985,4.75,4.75,1347200,4.859375,4.8125,1.7752143144607544
07-03-1985,4.765625,4.78125,678400,4.890625,4.828125,1.7809785604476929
08-03-1985,4.8125,4.8125,493600,4.90625,4.90625,1.8097976446151733
11-03-1985,4.859375,4.875,1016000,4.953125,4.875,1.7982693910598755
12-03-1985,4.6875,4.84375,862400,4.875,4.75,1.7521612644195557
13-03-1985,4.6875,4.71875,280800,4.796875,4.703125,1.7348700761795044
14-03-1985,4.65625,4.6875,569600,4.8125,4.796875,1.7694507837295532
15-03-1985,4.625,4.765625,582400,4.8125,4.625,1.7060502767562866
18-03-1985,4.625,4.625,464000,4.703125,4.671875,1.7233415842056274
19-03-1985,4.640625,4.640625,392800,4.796875,4.75,1.7521612644195557
20-03-1985,4.65625,4.71875,212800,4.71875,4.6875,1.7291053533554077
21-03-1985,4.625,4.65625,334400,4.703125,4.671875,1.7233415842056274
22-03-1985,4.65625,4.6875,413600,4.734375,4.703125,1.7348700761795044
25-03-1985,4.65625,4.703125,211200,4.734375,4.703125,1.7348700761795044
26-03-1985,4.6875,4.71875,472000,4.78125,4.71875,1.7406328916549683
27-03-1985,4.703125,4.734375,250400,4.75,4.734375,1.7463966608047485
28-03-1985,4.640625,4.734375,610400,4.734375,4.671875,1.7233415842056274
29-03-1985,4.625,4.703125,410400,4.703125,4.65625,1.7175782918930054
01-04-1985,4.65625,4.671875,460800,4.703125,4.6875,1.7291053533554077
02-04-1985,4.671875,4.703125,448000,4.71875,4.703125,1.7348700761795044
03-04-1985,4.671875,4.671875,388000,4.75,4.75,1.7521612644195557
04-04-1985,4.703125,4.703125,434400,4.75,4.734375,1.7463966608047485
08-04-1985,4.703125,4.734375,388000,4.734375,4.734375,1.7463966608047485
09-04-1985,4.6875,4.6875,454400,4.71875,4.71875,1.7406328916549683
10-04-1985,4.65625,4.78125,894400,4.78125,4.6875,1.7291053533554077
11-04-1985,4.671875,4.703125,643200,4.71875,4.6875,1.7291053533554077
12-04-1985,4.625,4.65625,1068800,4.6875,4.65625,1.7175782918930054
15-04-1985,4.625,4.625,189600,4.6875,4.6875,1.7291053533554077
16-04-1985,4.578125,4.640625,768800,4.671875,4.625,1.7060502767562866
17-04-1985,4.421875,4.5625,2160800,4.578125,4.484375,1.6541767120361328
18-04-1985,4.390625,4.40625,640800,4.4375,4.421875,1.6311228275299072
19-04-1985,4.390625,4.4375,615200,4.453125,4.4375,1.6368857622146606
22-04-1985,4.34375,4.40625,780000,4.40625,4.40625,1.6253585815429688
23-04-1985,4.34375,4.34375,564000,4.453125,4.453125,1.6426496505737305
24-04-1985,4.375,4.390625,4750400,4.453125,4.390625,1.6195950508117676
25-04-1985,4.34375,4.4375,649600,4.4375,4.4375,1.6368857622146606
26-04-1985,4.390625,4.40625,842400,4.4375,4.421875,1.6311228275299072
29-04-1985,4.375,4.421875,504000,4.421875,4.390625,1.6195950508117676
30-04-1985,4.34375,4.359375,612800,4.375,4.359375,1.6080681085586548
01-05-1985,4.34375,4.359375,2526400,4.40625,4.34375,1.602304220199585
02-05-1985,4.3125,4.328125,977600,4.359375,4.359375,1.6080681085586548
03-05-1985,4.34375,4.359375,497600,4.40625,4.390625,1.6195950508117676
06-05-1985,4.3125,4.359375,297600,4.375,4.3125,1.609100580215454
07-05-1985,4.3125,4.34375,423200,4.375,4.375,1.6324217319488525
08-05-1985,4.328125,4.375,1213600,4.375,4.34375,1.6207610368728638
09-05-1985,4.359375,4.359375,549600,4.40625,4.40625,1.6440818309783936
10-05-1985,4.40625,4.421875,1000000,4.53125,4.515625,1.6848920583724976
13-05-1985,4.46875,4.546875,528000,4.546875,4.5,1.679062008857727
14-05-1985,4.53125,4.53125,852000,4.625,4.59375,1.7140421867370605
15-05-1985,4.59375,4.609375,1112000,4.6875,4.640625,1.731533408164978
16-05-1985,4.65625,4.671875,509600,4.75,4.75,1.7723437547683716
17-05-1985,4.78125,4.78125,1585600,4.859375,4.84375,1.807323932647705
20-05-1985,4.875,4.890625,1227200,4.96875,4.9375,1.8423051834106445
21-05-1985,4.90625,4.9375,665600,4.96875,4.953125,1.8481346368789673
22-05-1985,4.921875,4.9375,1565600,4.96875,4.9375,1.8423051834106445
23-05-1985,4.875,4.921875,925600,4.953125,4.953125,1.8481346368789673
24-05-1985,4.890625,4.96875,918400,4.984375,4.921875,1.8364741802215576
28-05-1985,4.828125,4.90625,714400,4.921875,4.859375,1.813152551651001
29-05-1985,4.828125,4.84375,803200,4.90625,4.875,1.8189846277236938
30-05-1985,4.84375,4.890625,470400,4.90625,4.875,1.8189846277236938
31-05-1985,4.84375,4.875,618400,4.90625,4.890625,1.824815273284912
03-06-1985,4.796875,4.859375,446400,4.890625,4.8125,1.7956631183624268
04-06-1985,4.78125,4.78125,4740800,4.96875,4.921875,1.8364741802215576
05-06-1985,4.9375,4.953125,2116000,5.109375,5.09375,1.9006050825119019
06-06-1985,5.03125,5.09375,1146400,5.109375,5.109375,1.9064360857009888
07-06-1985,5.09375,5.09375,784000,5.1875,5.15625,1.9239256381988525
10-06-1985,5.125,5.15625,580800,5.15625,5.125,1.9122650623321533
11-06-1985,5.09375,5.140625,719200,5.140625,5.109375,1.9064360857009888
12-06-1985,5.078125,5.109375,701600,5.125,5.09375,1.9006050825119019
13-06-1985,5.078125,5.125,1678400,5.15625,5.09375,1.9006050825119019
14-06-1985,5.125,5.140625,594400,5.234375,5.21875,1.9472450017929077
17-06-1985,5.1875,5.203125,363200,5.25,5.25,1.9589062929153442
18-06-1985,5.171875,5.21875,696800,5.28125,5.1875,1.9355860948562622
19-06-1985,5.15625,5.203125,1571200,5.28125,5.25,1.9589062929153442
20-06-1985,5.21875,5.21875,241600,5.28125,5.28125,1.9705661535263062
21-06-1985,5.25,5.25,808000,5.296875,5.296875,1.9763957262039185
24-06-1985,5.21875,5.265625,1336800,5.28125,5.265625,1.9647361040115356
25-06-1985,5.1875,5.25,1568000,5.359375,5.203125,1.941415548324585
26-06-1985,5.1875,5.21875,676000,5.28125,5.25,1.9589062929153442
27-06-1985,5.21875,5.25,648000,5.296875,5.21875,1.9472450017929077
28-06-1985,5.203125,5.25,646400,5.265625,5.234375,1.9530763626098633
01-07-1985,5.203125,5.234375,485600,5.296875,5.28125,1.9705661535263062
02-07-1985,5.25,5.265625,669600,5.3125,5.3125,1.982226014137268
03-07-1985,5.28125,5.3125,1062400,5.4375,5.40625,2.0172064304351807
05-07-1985,5.390625,5.40625,444000,5.421875,5.421875,2.023036479949951
08-07-1985,5.390625,5.390625,688000,5.421875,5.421875,2.023036479949951
09-07-1985,5.328125,5.421875,791200,5.421875,5.390625,2.0113766193389893
10-07-1985,5.34375,5.375,2248800,5.40625,5.375,2.005547285079956
11-07-1985,5.328125,5.328125,1067200,5.390625,5.390625,2.0113766193389893
12-07-1985,5.390625,5.421875,568800,5.453125,5.453125,2.0346968173980713
15-07-1985,5.4375,5.46875,708800,5.5,5.453125,2.0346968173980713
16-07-1985,5.421875,5.453125,656800,5.53125,5.5,2.052187442779541
17-07-1985,5.59375,5.625,2698400,5.671875,5.671875,2.116319417953491
18-07-1985,5.625,5.671875,1896000,5.796875,5.78125,2.1571292877197266
19-07-1985,5.734375,5.75,1309600,5.90625,5.875,2.1921091079711914
22-07-1985,5.71875,5.84375,429600,5.859375,5.765625,2.1512980461120605
23-07-1985,5.59375,5.796875,941600,5.8125,5.625,2.0988271236419678
24-07-1985,5.5,5.65625,410400,5.65625,5.53125,2.0638463497161865
25-07-1985,5.5,5.53125,535200,5.5625,5.5625,2.075507402420044
26-07-1985,5.546875,5.546875,1002400,5.734375,5.71875,2.133807420730591
29-07-1985,5.59375,5.734375,928000,5.734375,5.640625,2.1046571731567383
30-07-1985,5.59375,5.625,361600,5.65625,5.640625,2.1046571731567383
31-07-1985,5.625,5.640625,216800,5.6875,5.671875,2.116319417953491
01-08-1985,5.625,5.671875,372800,5.6875,5.65625,2.110485792160034
02-08-1985,5.640625,5.671875,945600,5.734375,5.6875,2.122147560119629
05-08-1985,5.640625,5.6875,348800,5.6875,5.65625,2.110485792160034
06-08-1985,5.46875,5.5,2713600,5.65625,5.5,2.0704891681671143
07-08-1985,5.40625,5.5,1204000,5.53125,5.5,2.0704891681671143
08-08-1985,5.5,5.53125,1320000,5.6875,5.6875,2.1410746574401855
09-08-1985,5.609375,5.65625,725600,5.703125,5.640625,2.1234283447265625
12-08-1985,5.609375,5.609375,644000,5.65625,5.625,2.1175460815429688
13-08-1985,5.625,5.640625,587200,5.6875,5.640625,2.1234283447265625
14-08-1985,5.625,5.625,302400,5.6875,5.65625,2.129310131072998
15-08-1985,5.53125,5.671875,822400,5.671875,5.53125,2.0822534561157227
16-08-1985,5.375,5.5,678400,5.53125,5.421875,2.041079044342041
19-08-1985,5.421875,5.421875,441600,5.484375,5.453125,2.0528438091278076
20-08-1985,5.453125,5.484375,385600,5.578125,5.546875,2.0881359577178955
21-08-1985,5.453125,5.53125,1249600,5.625,5.5625,2.094017505645752
22-08-1985,5.484375,5.59375,1018400,5.59375,5.5,2.0704891681671143
23-08-1985,5.4375,5.46875,458400,5.5625,5.484375,2.0646066665649414
26-08-1985,5.484375,5.484375,340800,5.546875,5.5,2.0704891681671143
27-08-1985,5.484375,5.484375,152800,5.5625,5.5625,2.094017505645752
28-08-1985,5.46875,5.5625,448800,5.578125,5.5,2.0704891681671143
29-08-1985,5.484375,5.5,355200,5.546875,5.53125,2.0822534561157227
30-08-1985,5.484375,5.53125,737600,5.546875,5.53125,2.0822534561157227
03-09-1985,5.515625,5.546875,384000,5.6875,5.6875,2.1410746574401855
04-09-1985,5.625,5.6875,371200,5.734375,5.671875,2.135193347930908
05-09-1985,5.5625,5.6875,484000,5.6875,5.578125,2.099900245666504
06-09-1985,5.484375,5.5625,406400,5.59375,5.546875,2.0881359577178955
09-09-1985,5.5,5.5625,142400,5.5625,5.5,2.0704891681671143
10-09-1985,5.46875,5.46875,272800,5.515625,5.5,2.0704891681671143
11-09-1985,5.375,5.5,1280000,5.5,5.390625,2.0293161869049072
12-09-1985,5.34375,5.375,597600,5.4375,5.375,2.0234336853027344
13-09-1985,5.375,5.375,556800,5.4375,5.421875,2.041079044342041
16-09-1985,5.40625,5.453125,253600,5.53125,5.515625,2.0763723850250244
17-09-1985,5.515625,5.515625,879200,5.625,5.609375,2.111663818359375
18-09-1985,5.484375,5.578125,427200,5.640625,5.484375,2.0646066665649414
19-09-1985,5.453125,5.515625,568000,5.515625,5.484375,2.0646066665649414
20-09-1985,5.421875,5.453125,589600,5.53125,5.46875,2.0587267875671387
23-09-1985,5.53125,5.53125,484000,5.59375,5.59375,2.105781316757202
24-09-1985,5.578125,5.59375,599200,5.65625,5.609375,2.111663818359375
25-09-1985,5.546875,5.546875,301600,5.609375,5.609375,2.111663818359375
26-09-1985,5.53125,5.625,360000,5.625,5.59375,2.105781316757202
30-09-1985,5.578125,5.59375,349600,5.625,5.625,2.1175460815429688
01-10-1985,5.59375,5.609375,324000,5.703125,5.703125,2.1469566822052
02-10-1985,5.59375,5.71875,1103200,5.796875,5.59375,2.105781316757202
03-10-1985,5.578125,5.578125,260800,5.6875,5.609375,2.111663818359375
04-10-1985,5.546875,5.609375,794400,5.609375,5.578125,2.099900245666504
07-10-1985,5.390625,5.5625,848800,5.5625,5.40625,2.0351970195770264
08-10-1985,5.40625,5.4375,253600,5.484375,5.453125,2.0528438091278076
09-10-1985,5.40625,5.421875,2060000,5.46875,5.4375,2.0469605922698975
10-10-1985,5.421875,5.421875,260000,5.453125,5.4375,2.0469605922698975
11-10-1985,5.40625,5.40625,1391200,5.46875,5.46875,2.0587267875671387
14-10-1985,5.453125,5.46875,680000,5.53125,5.53125,2.0822534561157227
15-10-1985,5.53125,5.5625,476800,5.59375,5.59375,2.105781316757202
16-10-1985,5.578125,5.578125,1112000,5.671875,5.671875,2.135193347930908
17-10-1985,5.640625,5.640625,757600,5.703125,5.6875,2.1410746574401855
18-10-1985,5.5625,5.671875,757600,5.703125,5.578125,2.099900245666504
21-10-1985,5.5625,5.59375,1012800,5.734375,5.65625,2.129310131072998
22-10-1985,5.65625,5.671875,692000,5.71875,5.703125,2.1469566822052
23-10-1985,5.59375,5.703125,376800,5.703125,5.671875,2.135193347930908
24-10-1985,5.59375,5.65625,386400,5.671875,5.625,2.1175460815429688
25-10-1985,5.515625,5.59375,182400,5.609375,5.609375,2.111663818359375
28-10-1985,5.546875,5.609375,180000,5.625,5.609375,2.111663818359375
29-10-1985,5.609375,5.609375,212800,5.65625,5.65625,2.129310131072998
30-10-1985,5.625,5.625,640000,5.671875,5.671875,2.135193347930908
31-10-1985,5.65625,5.65625,524000,5.6875,5.6875,2.1410746574401855
01-11-1985,5.65625,5.65625,965600,5.890625,5.890625,2.217541217803955
04-11-1985,5.859375,5.90625,1089600,6.0,5.90625,2.223424196243286
05-11-1985,5.8125,6.015625,884000,6.015625,6.015625,2.285883665084839
06-11-1985,6.015625,6.015625,1521600,6.15625,6.046875,2.2977583408355713
07-11-1985,6.03125,6.046875,840000,6.15625,6.15625,2.339320421218872
08-11-1985,6.046875,6.125,337600,6.125,6.09375,2.3155717849731445
11-11-1985,6.03125,6.09375,656800,6.15625,6.15625,2.339320421218872
12-11-1985,6.125,6.125,1264800,6.25,6.234375,2.3690073490142822
13-11-1985,6.140625,6.25,449600,6.25,6.140625,2.333383798599243
14-11-1985,6.078125,6.125,614400,6.234375,6.171875,2.3452577590942383
15-11-1985,6.15625,6.15625,1276800,6.3125,6.203125,2.357132911682129
18-11-1985,6.140625,6.21875,1349600,6.296875,6.296875,2.392756462097168
19-11-1985,6.34375,6.375,854400,6.421875,6.421875,2.440255880355835
20-11-1985,6.34375,6.375,290400,6.40625,6.375,2.4224424362182617
21-11-1985,6.34375,6.375,668800,6.40625,6.375,2.4224424362182617
22-11-1985,6.203125,6.34375,374400,6.375,6.21875,2.3630685806274414
25-11-1985,6.1875,6.3125,424800,6.3125,6.265625,2.3808815479278564
26-11-1985,6.0625,6.234375,1265600,6.25,6.15625,2.339320421218872
27-11-1985,6.1875,6.1875,1169600,6.3125,6.28125,2.386820077896118
29-11-1985,6.203125,6.25,924800,6.3125,6.234375,2.3690073490142822
02-12-1985,6.125,6.203125,472800,6.21875,6.203125,2.357132911682129
03-12-1985,6.171875,6.21875,650400,6.25,6.1875,2.3511955738067627
04-12-1985,6.03125,6.0625,2110400,6.1875,6.171875,2.3452577590942383
05-12-1985,5.9375,6.15625,1506400,6.1875,5.9375,2.2561962604522705
06-12-1985,5.5625,5.90625,1225600,5.90625,5.859375,2.2265117168426514
09-12-1985,5.828125,5.828125,827200,6.078125,5.96875,2.2680728435516357
10-12-1985,5.9375,5.9375,409600,6.03125,5.953125,2.2621357440948486
11-12-1985,5.9375,5.9375,549600,6.0,5.984375,2.2740087509155273
12-12-1985,5.90625,5.984375,1932000,6.0625,5.984375,2.2740087509155273
13-12-1985,5.984375,5.984375,625600,6.234375,6.203125,2.357132911682129
16-12-1985,6.140625,6.1875,1236000,6.359375,6.34375,2.4105684757232666
17-12-1985,6.1875,6.359375,1179200,6.359375,6.359375,2.4165074825286865
18-12-1985,6.28125,6.328125,987200,6.375,6.34375,2.4105684757232666
19-12-1985,6.28125,6.296875,683200,6.359375,6.296875,2.392756462097168
20-12-1985,6.25,6.296875,795200,6.375,6.375,2.4224424362182617
23-12-1985,6.28125,6.3125,602400,6.375,6.359375,2.4165074825286865
24-12-1985,6.09375,6.3125,727200,6.3125,6.140625,2.333383798599243
26-12-1985,6.09375,6.125,173600,6.140625,6.109375,2.3215091228485107
27-12-1985,6.078125,6.078125,525600,6.1875,6.1875,2.3511955738067627
30-12-1985,6.15625,6.1875,418400,6.265625,6.265625,2.3808815479278564
31-12-1985,6.25,6.28125,786400,6.375,6.375,2.4224424362182617
02-01-1986,6.296875,6.375,540800,6.375,6.328125,2.4046313762664795
03-01-1986,6.25,6.3125,650400,6.34375,6.296875,2.392756462097168
06-01-1986,6.140625,6.296875,427200,6.296875,6.1875,2.3511955738067627
07-01-1986,6.03125,6.21875,592000,6.234375,6.125,2.327446222305298
08-01-1986,5.6875,6.15625,1376800,6.171875,5.71875,2.1730754375457764
09-01-1986,5.625,5.625,1164800,5.828125,5.828125,2.21463680267334
10-01-1986,5.765625,5.8125,749600,5.84375,5.78125,2.196824550628662
13-01-1986,5.765625,5.78125,688800,5.84375,5.78125,2.196824550628662
14-01-1986,5.71875,5.78125,1518400,5.796875,5.765625,2.190886974334717
15-01-1986,5.71875,5.75,1378400,5.90625,5.90625,2.2443244457244873
16-01-1986,5.875,5.921875,352000,6.03125,5.984375,2.2740087509155273
17-01-1986,5.9375,5.953125,518400,6.0625,6.015625,2.285883665084839
20-01-1986,5.890625,5.984375,744800,5.984375,5.96875,2.2680728435516357
21-01-1986,5.875,5.953125,740000,6.0,5.921875,2.2502613067626953
22-01-1986,5.8125,5.96875,1319200,6.0,5.8125,2.2086987495422363
23-01-1986,5.765625,5.78125,598400,5.875,5.828125,2.21463680267334
24-01-1986,5.8125,5.8125,909600,5.953125,5.953125,2.2621357440948486
27-01-1986,5.890625,5.90625,435200,5.984375,5.96875,2.2680728435516357
28-01-1986,5.9375,6.0,480800,6.0,5.953125,2.2621357440948486
29-01-1986,5.953125,5.984375,848000,6.125,6.03125,2.2918219566345215
30-01-1986,6.0,6.015625,881600,6.109375,6.0625,2.3036975860595703
31-01-1986,6.078125,6.109375,1335200,6.171875,6.140625,2.333383798599243
03-02-1986,6.109375,6.109375,628000,6.21875,6.203125,2.357132911682129
04-02-1986,6.21875,6.25,1524000,6.28125,6.234375,2.3690073490142822
05-02-1986,6.234375,6.25,1951200,6.328125,6.3125,2.3986947536468506
06-02-1986,6.328125,6.34375,1742400,6.453125,6.421875,2.440255880355835
07-02-1986,6.359375,6.421875,972000,6.53125,6.53125,2.481816291809082
10-02-1986,6.546875,6.703125,1145600,6.734375,6.703125,2.5471291542053223
11-02-1986,6.640625,6.875,1729600,6.890625,6.875,2.6340527534484863
12-02-1986,6.75,6.84375,1461600,6.90625,6.75,2.586160182952881
13-02-1986,6.6875,6.71875,1157600,6.875,6.875,2.6340527534484863
14-02-1986,6.734375,6.90625,1000000,6.96875,6.96875,2.6699700355529785
18-02-1986,6.96875,7.0,1034400,7.15625,7.125,2.7298357486724854
19-02-1986,7.125,7.15625,1052000,7.34375,7.171875,2.7477941513061523
20-02-1986,7.125,7.171875,2320800,7.234375,7.15625,2.7418086528778076
21-02-1986,7.140625,7.15625,1183200,7.3125,7.265625,2.7837138175964355
24-02-1986,7.15625,7.21875,668800,7.3125,7.296875,2.795687437057495
25-02-1986,7.15625,7.3125,1738400,7.34375,7.21875,2.765753984451294
26-02-1986,7.21875,7.25,732000,7.296875,7.28125,2.7897000312805176
27-02-1986,7.25,7.3125,463200,7.375,7.328125,2.8076589107513428
28-02-1986,7.46875,7.5,1215200,7.6875,7.6875,2.9453487396240234
03-03-1986,7.421875,7.6875,721600,7.6875,7.453125,2.8555524349212646
04-03-1986,7.34375,7.453125,1326400,7.6875,7.53125,2.885483980178833
05-03-1986,7.46875,7.5625,562400,7.5625,7.5625,2.8974573612213135
06-03-1986,7.5625,7.59375,1779200,8.046875,7.984375,3.059093475341797
07-03-1986,7.84375,7.984375,1203200,7.984375,7.90625,3.029160499572754
10-03-1986,7.71875,7.90625,428000,7.96875,7.71875,2.957322597503662
11-03-1986,7.703125,7.703125,742400,7.921875,7.890625,3.023172616958618
12-03-1986,7.875,7.875,964800,8.15625,8.03125,3.077052354812622
13-03-1986,7.921875,8.0625,636000,8.125,8.09375,3.1009981632232666
14-03-1986,7.53125,8.0625,1812800,8.125,8.0625,3.089024782180786
17-03-1986,7.78125,7.96875,766400,8.0625,7.984375,3.059093475341797
18-03-1986,7.8125,7.96875,484800,7.984375,7.953125,3.0471203327178955
19-03-1986,7.8125,7.921875,692000,7.96875,7.90625,3.029160499572754
20-03-1986,7.875,7.90625,1108000,8.0625,8.0625,3.089024782180786
21-03-1986,8.0625,8.125,1337600,8.21875,8.15625,3.124941825866699
24-03-1986,8.125,8.21875,1558400,8.265625,8.203125,3.1429014205932617
25-03-1986,7.9375,8.1875,685600,8.1875,8.109375,3.1069843769073486
26-03-1986,8.015625,8.109375,904000,8.109375,8.046875,3.083038091659546
27-03-1986,8.0,8.09375,678400,8.109375,8.015625,3.071065664291382
31-03-1986,8.03125,8.078125,582400,8.109375,8.078125,3.095010995864868
01-04-1986,8.015625,8.109375,619200,8.109375,8.015625,3.071065664291382
02-04-1986,7.96875,8.03125,1211200,8.046875,8.046875,3.083038091659546
03-04-1986,7.9375,8.046875,392800,8.078125,7.96875,3.0531070232391357
04-04-1986,7.59375,7.9375,819200,8.09375,7.59375,2.9094300270080566
07-04-1986,7.546875,7.59375,560800,7.65625,7.65625,2.933377265930176
08-04-1986,7.640625,7.671875,503200,7.875,7.75,2.969295024871826
09-04-1986,7.609375,7.8125,917600,7.890625,7.625,2.921403408050537
10-04-1986,7.375,7.65625,1039200,7.65625,7.59375,2.9094300270080566
11-04-1986,7.546875,7.578125,458400,7.65625,7.625,2.921403408050537
14-04-1986,7.53125,7.65625,730400,7.671875,7.625,2.921403408050537
15-04-1986,7.625,7.65625,269600,7.734375,7.640625,2.9273908138275146
16-04-1986,7.71875,7.71875,1074400,8.28125,8.25,3.160862445831299
17-04-1986,7.9375,8.1875,801600,8.234375,8.0,3.065080165863037
18-04-1986,7.640625,8.03125,1028000,8.046875,8.03125,3.077052354812622
21-04-1986,8.0,8.09375,858400,8.109375,8.078125,3.095010995864868
22-04-1986,8.125,8.21875,1219200,8.28125,8.25,3.160862445831299
23-04-1986,8.1875,8.25,945600,8.28125,8.25,3.160862445831299
24-04-1986,8.1875,8.1875,652800,8.265625,8.203125,3.1429014205932617
25-04-1986,8.15625,8.203125,555200,8.234375,8.234375,3.1548755168914795
28-04-1986,8.15625,8.234375,561600,8.265625,8.234375,3.1548755168914795
29-04-1986,8.015625,8.203125,452000,8.203125,8.09375,3.1009981632232666
30-04-1986,8.09375,8.171875,1053600,8.28125,8.125,3.1129705905914307
01-05-1986,8.03125,8.09375,796000,8.25,8.234375,3.1548755168914795
02-05-1986,8.125,8.203125,712800,8.265625,8.203125,3.1429014205932617
05-05-1986,8.125,8.171875,431200,8.25,8.21875,3.1488895416259766
06-05-1986,8.09375,8.09375,180800,8.1875,8.09375,3.123802423477173
07-05-1986,8.09375,8.140625,590400,8.25,8.234375,3.1780786514282227
08-05-1986,8.03125,8.28125,355200,8.28125,8.046875,3.1057097911834717
09-05-1986,7.921875,8.015625,398400,8.015625,7.921875,3.0574681758880615
12-05-1986,7.796875,7.9375,1021600,7.953125,7.796875,3.0092227458953857
13-05-1986,7.65625,7.796875,651200,7.796875,7.703125,2.973040819168091
14-05-1986,7.625,7.71875,809600,7.734375,7.625,2.942887306213379
15-05-1986,7.4375,7.640625,608000,7.640625,7.46875,2.882582902908325
16-05-1986,7.3125,7.4375,1061600,7.5,7.5,2.8946433067321777
19-05-1986,7.515625,7.53125,737600,7.625,7.609375,2.9368577003479004
20-05-1986,7.5625,7.609375,799200,7.75,7.734375,2.9850993156433105
21-05-1986,7.640625,7.75,1017600,7.796875,7.75,2.991130828857422
22-05-1986,7.734375,7.75,465600,7.90625,7.90625,3.05143666267395
23-05-1986,7.890625,7.921875,533600,8.03125,8.015625,3.0936505794525146
27-05-1986,7.953125,7.984375,221600,8.015625,7.984375,3.0815908908843994
28-05-1986,7.875,7.984375,617600,8.0,7.953125,3.069528579711914
29-05-1986,7.8125,7.921875,1089600,7.9375,7.9375,3.0634965896606445
30-05-1986,7.828125,7.875,1028000,7.90625,7.890625,3.0454061031341553
02-06-1986,7.875,7.90625,1261600,7.953125,7.953125,3.069528579711914
03-06-1986,7.90625,7.921875,451200,7.953125,7.953125,3.069528579711914
04-06-1986,7.96875,7.984375,777600,8.109375,8.09375,3.123802423477173
05-06-1986,8.015625,8.09375,804800,8.109375,8.109375,3.129833221435547
06-06-1986,7.890625,8.078125,664800,8.09375,7.921875,3.0574681758880615
09-06-1986,7.578125,7.890625,507200,7.890625,7.625,2.942887306213379
10-06-1986,7.59375,7.609375,776800,7.71875,7.65625,2.954949378967285
11-06-1986,7.625,7.671875,693600,7.734375,7.71875,2.979069471359253
12-06-1986,7.640625,7.6875,357600,7.859375,7.859375,3.0333452224731445
13-06-1986,7.84375,7.84375,600000,8.03125,8.03125,3.0996806621551514
16-06-1986,7.9375,8.0,724000,8.0625,8.0625,3.1117420196533203
17-06-1986,7.859375,8.0625,438400,8.0625,7.96875,3.075558662414551
18-06-1986,7.828125,7.96875,331200,7.96875,7.921875,3.0574681758880615
19-06-1986,7.6875,7.921875,492000,7.9375,7.78125,3.0031936168670654
20-06-1986,7.765625,7.78125,617600,7.875,7.84375,3.027313709259033
23-06-1986,7.78125,7.875,881600,7.9375,7.90625,3.05143666267395
24-06-1986,7.890625,7.9375,989600,8.109375,8.0625,3.1117420196533203
25-06-1986,8.078125,8.109375,1040000,8.171875,8.171875,3.153954267501831
26-06-1986,8.21875,8.34375,1207200,8.6875,8.6875,3.352961540222168
27-06-1986,8.53125,8.65625,572000,8.65625,8.59375,3.316776990890503
30-06-1986,8.5,8.5625,396000,8.640625,8.515625,3.2866263389587402
01-07-1986,8.46875,8.5,1366400,8.546875,8.53125,3.2926576137542725
02-07-1986,8.4375,8.53125,1432800,8.53125,8.46875,3.2685348987579346
03-07-1986,8.3125,8.484375,1009600,8.484375,8.421875,3.250443458557129
07-07-1986,8.15625,8.453125,603200,8.453125,8.15625,3.1479246616363525
08-07-1986,7.765625,8.0,1141600,8.0,7.9375,3.0634965896606445
09-07-1986,7.828125,7.9375,952800,7.96875,7.921875,3.0574681758880615
10-07-1986,7.703125,7.921875,696000,7.921875,7.84375,3.027313709259033
11-07-1986,7.78125,7.875,1339200,7.875,7.875,3.039374351501465
14-07-1986,7.71875,7.84375,626400,7.84375,7.765625,2.997161865234375
15-07-1986,7.5,7.71875,1178400,7.75,7.53125,2.9067063331604004
16-07-1986,7.515625,7.625,808800,7.671875,7.515625,2.90067195892334
17-07-1986,7.5,7.5,1128000,7.671875,7.640625,2.9489190578460693
18-07-1986,7.65625,7.75,808800,7.90625,7.78125,3.0031936168670654
21-07-1986,7.65625,7.75,498400,7.75,7.71875,2.979069471359253
22-07-1986,7.6875,7.6875,740000,7.875,7.875,3.039374351501465
23-07-1986,7.8125,7.859375,1444000,7.984375,7.96875,3.075558662414551
24-07-1986,7.9375,7.96875,552000,8.0625,8.0625,3.1117420196533203
25-07-1986,7.96875,8.078125,448000,8.09375,8.09375,3.123802423477173
28-07-1986,7.8125,8.078125,580000,8.09375,7.8125,3.0152549743652344
29-07-1986,7.765625,7.828125,768800,7.828125,7.78125,3.0031936168670654
30-07-1986,7.65625,7.78125,514400,7.796875,7.703125,2.973040819168091
31-07-1986,7.65625,7.734375,704800,7.734375,7.703125,2.973040819168091
01-08-1986,7.59375,7.6875,1102400,7.6875,7.59375,2.93082594871521
04-08-1986,7.5,7.5625,620800,7.859375,7.859375,3.0333452224731445
05-08-1986,7.71875,7.71875,760800,7.875,7.71875,3.0019888877868652
06-08-1986,7.53125,7.625,532800,7.640625,7.5625,2.9412190914154053
07-08-1986,7.484375,7.59375,768800,7.625,7.5,2.916912078857422
08-08-1986,7.40625,7.546875,616800,7.546875,7.53125,2.929065465927124
11-08-1986,7.53125,7.5625,1471200,7.859375,7.859375,3.0566792488098145
12-08-1986,7.78125,7.828125,952000,7.984375,7.921875,3.080986261367798
13-08-1986,7.921875,7.921875,2211200,8.25,8.1875,3.1842966079711914
14-08-1986,8.203125,8.234375,1181600,8.28125,8.234375,3.202526092529297
15-08-1986,8.15625,8.3125,1148000,8.3125,8.265625,3.2146806716918945
18-08-1986,8.125,8.25,1219200,8.25,8.21875,3.196448564529419
19-08-1986,8.171875,8.1875,1656000,8.203125,8.171875,3.178217887878418
20-08-1986,8.1875,8.203125,1321600,8.359375,8.359375,3.251142740249634
21-08-1986,8.34375,8.375,1935200,8.5,8.4375,3.2815258502960205
22-08-1986,8.34375,8.46875,779200,8.46875,8.375,3.2572195529937744
25-08-1986,8.28125,8.34375,586400,8.359375,8.296875,3.2268331050872803
26-08-1986,8.296875,8.296875,1156800,8.5,8.46875,3.2936785221099854
27-08-1986,8.4375,8.453125,981600,8.53125,8.53125,3.3179852962493896
28-08-1986,8.5,8.53125,1001600,8.671875,8.640625,3.3605234622955322
29-08-1986,8.59375,8.59375,3828000,8.796875,8.71875,3.390911817550659
02-09-1986,8.453125,8.71875,1000000,8.71875,8.46875,3.2936785221099854
03-09-1986,8.375,8.46875,1630400,8.625,8.625,3.3544485569000244
04-09-1986,8.640625,8.65625,2874400,9.0,8.890625,3.4577548503875732
05-09-1986,8.625,8.875,1639200,8.921875,8.671875,3.3726792335510254
08-09-1986,8.515625,8.59375,1348000,8.78125,8.75,3.403064012527466
09-09-1986,8.625,8.78125,1900800,8.859375,8.65625,3.36660099029541
10-09-1986,8.5625,8.65625,1460000,8.8125,8.8125,3.427371025085449
11-09-1986,8.4375,8.8125,2055200,8.8125,8.46875,3.2936785221099854
12-09-1986,8.1875,8.484375,2328800,8.5,8.34375,3.2450666427612305
15-09-1986,8.390625,8.46875,1860800,8.484375,8.4375,3.2815258502960205
16-09-1986,8.375,8.4375,1300800,8.484375,8.453125,3.2876012325286865
17-09-1986,8.34375,8.453125,1265600,8.484375,8.34375,3.2450666427612305
18-09-1986,8.3125,8.34375,861600,8.40625,8.359375,3.251142740249634
19-09-1986,8.28125,8.359375,1069600,8.421875,8.421875,3.2754480838775635
22-09-1986,8.34375,8.390625,415200,8.4375,8.421875,3.2754480838775635
23-09-1986,8.421875,8.4375,1432800,8.546875,8.546875,3.3240652084350586
24-09-1986,8.390625,8.5,820800,8.5625,8.5625,3.3301405906677246
25-09-1986,8.3125,8.5625,1181600,8.5625,8.375,3.2572195529937744
26-09-1986,8.25,8.34375,456000,8.359375,8.3125,3.23291015625
29-09-1986,7.9375,8.28125,1515200,8.28125,8.0,3.111372232437134
30-09-1986,7.96875,7.96875,930400,8.0625,8.015625,3.1174492835998535
01-10-1986,8.015625,8.046875,1239200,8.1875,8.125,3.15998911857605
02-10-1986,8.109375,8.171875,648800,8.203125,8.109375,3.1539127826690674
03-10-1986,8.015625,8.078125,416000,8.1875,8.078125,3.1417572498321533
06-10-1986,8.03125,8.046875,403200,8.15625,8.0625,3.1356801986694336
07-10-1986,8.046875,8.078125,541600,8.140625,8.078125,3.1417572498321533
08-10-1986,8.078125,8.109375,1105600,8.21875,8.1875,3.1842966079711914
